"sep=	"
Shimmer_D349_TimestampSync_Unix_CAL	Shimmer_D349_Accel_LN_X_CAL	Shimmer_D349_Accel_LN_Y_CAL	Shimmer_D349_Accel_LN_Z_CAL	Shimmer_D349_GSR_Range_CAL	Shimmer_D349_GSR_Skin_Conductance_CAL	Shimmer_D349_GSR_Skin_Resistance_CAL	Shimmer_D349_Mag_X_CAL	Shimmer_D349_Mag_Y_CAL	Shimmer_D349_Mag_Z_CAL	
ms	m/(s^2)	m/(s^2)	m/(s^2)	no_units	uS	kOhms	local_flux	local_flux	local_flux	
1.6982425625734917E12	3.5652173913043477	0.7282608695652174	11.0	3.0	0.24042624042624045	4159.279778393351	0.22338830584707645	-0.12743628185907047	-0.5187406296851574	
1.698242562593022E12	3.543478260869565	0.7065217391304348	10.945652173913043	3.0	0.24042624042624045	4159.279778393351	0.22188905547226387	-0.14392803598200898	-0.512743628185907	
1.6982425626125525E12	3.5543478260869565	0.7065217391304348	10.956521739130434	3.0	0.24042624042624045	4159.279778393351	0.2338830584707646	-0.12743628185907047	-0.5157421289355322	
1.698242562632083E12	3.5869565217391304	0.7282608695652174	11.0	3.0	0.24042624042624045	4159.279778393351	0.22938530734632684	-0.13193403298350825	-0.5157421289355322	
1.6982425626516133E12	3.5543478260869565	0.7391304347826086	10.967391304347826	3.0	0.24042624042624045	4159.279778393351	0.22188905547226387	-0.13493253373313344	-0.5187406296851574	
1.6982425626711438E12	3.532608695652174	0.7608695652173912	11.01086956521739	3.0	0.24042624042624045	4159.279778393351	0.22338830584707645	-0.13043478260869565	-0.5082458770614693	
1.6982425626906743E12	3.5760869565217392	0.717391304347826	10.989130434782608	3.0	0.24042624042624045	4159.279778393351	0.22038980509745126	-0.1394302848575712	-0.5022488755622189	
1.6982425627102048E12	3.619565217391304	0.6956521739130435	11.01086956521739	3.0	0.23998223998224	4166.975023126734	0.22038980509745126	-0.13193403298350825	-0.5097451274362819	
1.698242562729735E12	3.543478260869565	0.7282608695652174	10.967391304347826	3.0	0.24042624042624045	4159.279778393351	0.23088455772113942	-0.12593703148425786	-0.5172413793103449	
1.6982425627492656E12	3.510869565217391	0.7065217391304348	10.967391304347826	3.0	0.24042624042624045	4159.279778393351	0.23088455772113942	-0.12893553223388304	-0.5112443778110944	
1.6982425627687961E12	3.5869565217391304	0.6739130434782609	10.989130434782608	3.0	0.24042624042624045	4159.279778393351	0.22638680659670163	-0.1169415292353823	-0.5172413793103449	
1.6982425627883264E12	3.5760869565217392	0.7391304347826086	11.0	3.0	0.24042624042624045	4159.279778393351	0.22638680659670163	-0.13343328335832083	-0.5157421289355322	
1.698242562807857E12	3.5869565217391304	0.717391304347826	10.989130434782608	3.0	0.24042624042624045	4159.279778393351	0.23238380809595202	-0.12743628185907047	-0.52023988005997	
1.6982425628273875E12	3.543478260869565	0.717391304347826	10.945652173913043	3.0	0.24042624042624045	4159.279778393351	0.22938530734632684	-0.1394302848575712	-0.5217391304347826	
1.698242562846918E12	3.543478260869565	0.717391304347826	11.0	3.0	0.24042624042624045	4159.279778393351	0.22338830584707645	-0.12893553223388304	-0.512743628185907	
1.6982425628664482E12	3.5652173913043477	0.717391304347826	11.0	3.0	0.23998223998224	4166.975023126734	0.22638680659670163	-0.13193403298350825	-0.5157421289355322	
1.6982425628859788E12	3.5760869565217392	0.717391304347826	10.989130434782608	3.0	0.24042624042624045	4159.279778393351	0.22938530734632684	-0.12593703148425786	-0.5082458770614693	
1.6982425629055093E12	3.5652173913043477	0.6847826086956521	10.978260869565217	3.0	0.24042624042624045	4159.279778393351	0.2338830584707646	-0.12443778110944527	-0.5232383808095952	
1.6982425629250398E12	3.5652173913043477	0.7065217391304348	11.0	3.0	0.24042624042624045	4159.279778393351	0.23238380809595202	-0.1394302848575712	-0.5112443778110944	
1.69824256294457E12	3.5978260869565215	0.7065217391304348	11.0	3.0	0.24042624042624045	4159.279778393351	0.22788605697151423	-0.12893553223388304	-0.5262368815592203	
1.6982425629641006E12	3.532608695652174	0.6847826086956521	10.978260869565217	3.0	0.24042624042624045	4159.279778393351	0.22338830584707645	-0.1424287856071964	-0.5097451274362819	
1.698242562983631E12	3.5978260869565215	0.717391304347826	11.01086956521739	3.0	0.24042624042624045	4159.279778393351	0.22338830584707645	-0.13193403298350825	-0.5157421289355322	
1.6982425630031614E12	3.5652173913043477	0.6847826086956521	11.0	3.0	0.24042624042624045	4159.279778393351	0.22788605697151423	-0.13193403298350825	-0.5262368815592203	
1.698242563022692E12	3.5760869565217392	0.6956521739130435	10.967391304347826	3.0	0.24042624042624045	4159.279778393351	0.22038980509745126	-0.12593703148425786	-0.527736131934033	
1.6982425630422224E12	3.543478260869565	0.6956521739130435	10.978260869565217	3.0	0.23998223998224	4166.975023126734	0.22338830584707645	-0.1394302848575712	-0.5082458770614693	
1.698242563061753E12	3.5217391304347827	0.6956521739130435	10.978260869565217	3.0	0.2408702408702409	4151.612903225806	0.2353823088455772	-0.13493253373313344	-0.52023988005997	
1.6982425630812832E12	3.5543478260869565	0.6847826086956521	11.0	3.0	0.24042624042624045	4159.279778393351	0.23238380809595202	-0.12593703148425786	-0.5172413793103449	
1.6982425631008137E12	3.5217391304347827	0.7065217391304348	10.956521739130434	3.0	0.24042624042624045	4159.279778393351	0.22338830584707645	-0.1199400299850075	-0.52023988005997	
1.6982425631203442E12	3.543478260869565	0.7065217391304348	10.978260869565217	3.0	0.24042624042624045	4159.279778393351	0.22938530734632684	-0.136431784107946	-0.5112443778110944	
1.6982425631398745E12	3.532608695652174	0.717391304347826	10.956521739130434	3.0	0.24042624042624045	4159.279778393351	0.21889055472263869	-0.12443778110944527	-0.5157421289355322	
1.698242563159405E12	3.543478260869565	0.6956521739130435	10.978260869565217	3.0	0.23998223998224	4166.975023126734	0.22788605697151423	-0.12593703148425786	-0.5112443778110944	
1.6982425631789355E12	3.532608695652174	0.717391304347826	10.989130434782608	3.0	0.24042624042624045	4159.279778393351	0.22638680659670163	-0.1199400299850075	-0.5157421289355322	
1.698242563198466E12	3.5652173913043477	0.6739130434782609	11.021739130434783	3.0	0.23998223998224	4166.975023126734	0.23238380809595202	-0.13043478260869565	-0.5217391304347826	
1.6982425632179963E12	3.5869565217391304	0.6413043478260869	10.956521739130434	3.0	0.24042624042624045	4159.279778393351	0.21889055472263869	-0.12293853073463268	-0.505247376311844	
1.6982425632375269E12	3.532608695652174	0.6413043478260869	10.945652173913043	3.0	0.2408702408702409	4151.612903225806	0.23088455772113942	-0.136431784107946	-0.5157421289355322	
1.6982425632570574E12	3.5217391304347827	0.7282608695652174	11.0	3.0	0.24042624042624045	4159.279778393351	0.22638680659670163	-0.12743628185907047	-0.512743628185907	
1.698242563276588E12	3.5543478260869565	0.7282608695652174	10.956521739130434	3.0	0.24042624042624045	4159.279778393351	0.23238380809595202	-0.12893553223388304	-0.5187406296851574	
1.6982425632961182E12	3.5652173913043477	0.6739130434782609	10.934782608695652	3.0	0.24042624042624045	4159.279778393351	0.22788605697151423	-0.13793103448275862	-0.5172413793103449	
1.6982425633156487E12	3.543478260869565	0.6630434782608695	10.92391304347826	3.0	0.24042624042624045	4159.279778393351	0.23238380809595202	-0.12593703148425786	-0.5082458770614693	
1.6982425633351792E12	3.5543478260869565	0.6739130434782609	10.967391304347826	3.0	0.23998223998224	4166.975023126734	0.22488755622188905	-0.12293853073463268	-0.512743628185907	
1.6982425633547095E12	3.543478260869565	0.6956521739130435	10.967391304347826	3.0	0.24042624042624045	4159.279778393351	0.22638680659670163	-0.12293853073463268	-0.5187406296851574	
1.69824256337424E12	3.5652173913043477	0.6630434782608695	11.0	3.0	0.2408702408702409	4151.612903225806	0.22638680659670163	-0.12293853073463268	-0.52023988005997	
1.6982425633937705E12	3.5543478260869565	0.6847826086956521	10.978260869565217	3.0	0.23998223998224	4166.975023126734	0.22188905547226387	-0.12743628185907047	-0.5187406296851574	
1.698242563413301E12	3.5543478260869565	0.6956521739130435	10.989130434782608	3.0	0.24042624042624045	4159.279778393351	0.2353823088455772	-0.12743628185907047	-0.5262368815592203	
1.6982425634328313E12	3.532608695652174	0.6630434782608695	10.956521739130434	3.0	0.2408702408702409	4151.612903225806	0.22038980509745126	-0.13043478260869565	-0.5157421289355322	
1.6982425634523618E12	3.5543478260869565	0.6956521739130435	10.978260869565217	3.0	0.24042624042624045	4159.279778393351	0.22938530734632684	-0.136431784107946	-0.5097451274362819	
1.6982425634718923E12	3.5869565217391304	0.6847826086956521	10.967391304347826	3.0	0.24042624042624045	4159.279778393351	0.22488755622188905	-0.12893553223388304	-0.5097451274362819	
1.6982425634914229E12	3.6304347826086953	0.6956521739130435	11.021739130434783	3.0	0.23998223998224	4166.975023126734	0.2353823088455772	-0.136431784107946	-0.5232383808095952	
1.6982425635109531E12	3.5652173913043477	0.6956521739130435	11.021739130434783	3.0	0.23998223998224	4166.975023126734	0.22638680659670163	-0.12143928035982009	-0.512743628185907	
1.6982425635304836E12	3.543478260869565	0.6956521739130435	11.01086956521739	3.0	0.24042624042624045	4159.279778393351	0.22638680659670163	-0.12893553223388304	-0.5067466266866567	
1.6982425635500142E12	3.5543478260869565	0.6739130434782609	11.01086956521739	3.0	0.24042624042624045	4159.279778393351	0.21739130434782608	-0.11544227886056971	-0.5022488755622189	
1.6982425635695444E12	3.5978260869565215	0.6847826086956521	10.989130434782608	3.0	0.24042624042624045	4159.279778393351	0.22338830584707645	-0.12593703148425786	-0.5067466266866567	
1.698242563589075E12	3.5543478260869565	0.6630434782608695	10.978260869565217	3.0	0.24042624042624045	4159.279778393351	0.22338830584707645	-0.12593703148425786	-0.5247376311844077	
1.6982425636086055E12	3.543478260869565	0.7065217391304348	10.956521739130434	3.0	0.24042624042624045	4159.279778393351	0.22188905547226387	-0.12293853073463268	-0.5157421289355322	
1.698242563628136E12	3.5978260869565215	0.6956521739130435	11.0	3.0	0.23998223998224	4166.975023126734	0.22788605697151423	-0.12593703148425786	-0.52023988005997	
1.6982425636476663E12	3.5978260869565215	0.6847826086956521	10.956521739130434	3.0	0.24042624042624045	4159.279778393351	0.22488755622188905	-0.13043478260869565	-0.512743628185907	
1.6982425636671968E12	3.5760869565217392	0.6847826086956521	10.978260869565217	3.0	0.23998223998224	4166.975023126734	0.23238380809595202	-0.13493253373313344	-0.512743628185907	
1.6982425636867273E12	3.4891304347826084	0.6956521739130435	10.945652173913043	3.0	0.24042624042624045	4159.279778393351	0.22338830584707645	-0.12443778110944527	-0.5142428785607196	
1.6982425637062576E12	3.619565217391304	0.6739130434782609	10.989130434782608	3.0	0.24042624042624045	4159.279778393351	0.22338830584707645	-0.12743628185907047	-0.512743628185907	
1.698242563725788E12	3.608695652173913	0.6956521739130435	11.0	3.0	0.24042624042624045	4159.279778393351	0.22638680659670163	-0.1184407796101949	-0.5142428785607196	
1.6982425637453186E12	3.5869565217391304	0.6739130434782609	10.989130434782608	3.0	0.24042624042624045	4159.279778393351	0.22038980509745126	-0.136431784107946	-0.5142428785607196	
1.698242563764849E12	3.5652173913043477	0.7065217391304348	11.01086956521739	3.0	0.23998223998224	4166.975023126734	0.22338830584707645	-0.13343328335832083	-0.5097451274362819	
1.6982425637843794E12	3.608695652173913	0.6956521739130435	11.043478260869565	3.0	0.23998223998224	4166.975023126734	0.22188905547226387	-0.13493253373313344	-0.5142428785607196	
1.69824256380391E12	3.5543478260869565	0.7391304347826086	10.967391304347826	3.0	0.24042624042624045	4159.279778393351	0.22488755622188905	-0.12293853073463268	-0.5067466266866567	
1.6982425638234404E12	3.5760869565217392	0.6630434782608695	10.978260869565217	3.0	0.24042624042624045	4159.279778393351	0.22638680659670163	-0.12293853073463268	-0.52023988005997	
1.698242563842971E12	3.5543478260869565	0.7065217391304348	10.956521739130434	3.0	0.2408702408702409	4151.612903225806	0.22788605697151423	-0.13793103448275862	-0.52023988005997	
1.6982425638625012E12	3.5652173913043477	0.6630434782608695	10.967391304347826	3.0	0.23998223998224	4166.975023126734	0.22338830584707645	-0.13343328335832083	-0.5172413793103449	
1.6982425638820317E12	3.543478260869565	0.7065217391304348	11.0	3.0	0.24042624042624045	4159.279778393351	0.22188905547226387	-0.12893553223388304	-0.52023988005997	
1.6982425639015623E12	3.5869565217391304	0.6739130434782609	11.021739130434783	3.0	0.24042624042624045	4159.279778393351	0.22488755622188905	-0.12293853073463268	-0.5172413793103449	
1.6982425639210925E12	3.5978260869565215	0.7282608695652174	10.978260869565217	3.0	0.24042624042624045	4159.279778393351	0.22338830584707645	-0.1169415292353823	-0.5097451274362819	
1.698242563940623E12	3.5869565217391304	0.7065217391304348	10.978260869565217	3.0	0.24042624042624045	4159.279778393351	0.22938530734632684	-0.13193403298350825	-0.5142428785607196	
1.6982425639601536E12	3.608695652173913	0.6956521739130435	11.01086956521739	3.0	0.23998223998224	4166.975023126734	0.23088455772113942	-0.1394302848575712	-0.5037481259370314	
1.698242563979684E12	3.5978260869565215	0.6739130434782609	10.967391304347826	3.0	0.24042624042624045	4159.279778393351	0.22638680659670163	-0.12893553223388304	-0.5157421289355322	
1.6982425639992144E12	3.5543478260869565	0.6847826086956521	10.934782608695652	3.0	0.24042624042624045	4159.279778393351	0.22038980509745126	-0.13043478260869565	-0.5097451274362819	
1.6982425640187449E12	3.619565217391304	0.717391304347826	10.978260869565217	3.0	0.24042624042624045	4159.279778393351	0.22488755622188905	-0.12893553223388304	-0.5247376311844077	
1.6982425640382754E12	3.619565217391304	0.7391304347826086	11.021739130434783	3.0	0.24042624042624045	4159.279778393351	0.21889055472263869	-0.1199400299850075	-0.512743628185907	
1.6982425640578057E12	3.5652173913043477	0.7282608695652174	11.01086956521739	3.0	0.24042624042624045	4159.279778393351	0.22788605697151423	-0.12743628185907047	-0.5157421289355322	
1.6982425640773362E12	3.5869565217391304	0.717391304347826	10.967391304347826	3.0	0.23998223998224	4166.975023126734	0.22488755622188905	-0.136431784107946	-0.5097451274362819	
1.6982425640968667E12	3.652173913043478	0.7065217391304348	10.967391304347826	3.0	0.23998223998224	4166.975023126734	0.22938530734632684	-0.11394302848575712	-0.5112443778110944	
1.6982425641163972E12	3.5760869565217392	0.7065217391304348	10.989130434782608	3.0	0.23998223998224	4166.975023126734	0.22188905547226387	-0.12893553223388304	-0.512743628185907	
1.6982425641359275E12	3.608695652173913	0.6956521739130435	10.967391304347826	3.0	0.24042624042624045	4159.279778393351	0.22488755622188905	-0.13493253373313344	-0.5082458770614693	
1.698242564155458E12	3.5869565217391304	0.6956521739130435	10.989130434782608	3.0	0.2408702408702409	4151.612903225806	0.23238380809595202	-0.1199400299850075	-0.5067466266866567	
1.6982425641749885E12	3.5869565217391304	0.6847826086956521	10.956521739130434	3.0	0.23998223998224	4166.975023126734	0.22938530734632684	-0.13343328335832083	-0.5142428785607196	
1.698242564194519E12	3.652173913043478	0.6847826086956521	11.01086956521739	3.0	0.24042624042624045	4159.279778393351	0.23238380809595202	-0.13193403298350825	-0.5112443778110944	
1.6982425642140493E12	3.5760869565217392	0.717391304347826	10.978260869565217	3.0	0.24042624042624045	4159.279778393351	0.2338830584707646	-0.13793103448275862	-0.5172413793103449	
1.6982425642335798E12	3.5543478260869565	0.717391304347826	10.978260869565217	3.0	0.23998223998224	4166.975023126734	0.22338830584707645	-0.12893553223388304	-0.5172413793103449	
1.6982425642531104E12	3.5760869565217392	0.6847826086956521	10.956521739130434	3.0	0.24042624042624045	4159.279778393351	0.23238380809595202	-0.13043478260869565	-0.505247376311844	
1.6982425642726406E12	3.6304347826086953	0.6847826086956521	10.945652173913043	3.0	0.23998223998224	4166.975023126734	0.22338830584707645	-0.11394302848575712	-0.512743628185907	
1.6982425642921711E12	3.543478260869565	0.6847826086956521	10.989130434782608	3.0	0.23998223998224	4166.975023126734	0.22788605697151423	-0.136431784107946	-0.5082458770614693	
1.6982425643117017E12	3.5652173913043477	0.7065217391304348	11.01086956521739	3.0	0.24042624042624045	4159.279778393351	0.22938530734632684	-0.12143928035982009	-0.5187406296851574	
1.6982425643312322E12	3.5869565217391304	0.6847826086956521	11.0	3.0	0.23998223998224	4166.975023126734	0.22188905547226387	-0.13793103448275862	-0.512743628185907	
1.6982425643507625E12	3.608695652173913	0.6956521739130435	10.978260869565217	3.0	0.24042624042624045	4159.279778393351	0.22188905547226387	-0.1169415292353823	-0.5067466266866567	
1.698242564370293E12	3.5760869565217392	0.717391304347826	10.989130434782608	3.0	0.23998223998224	4166.975023126734	0.22938530734632684	-0.13343328335832083	-0.5112443778110944	
1.6982425643898235E12	3.608695652173913	0.6739130434782609	10.978260869565217	3.0	0.23998223998224	4166.975023126734	0.22938530734632684	-0.12743628185907047	-0.5112443778110944	
1.6982425644093538E12	3.6304347826086953	0.6956521739130435	10.978260869565217	3.0	0.23998223998224	4166.975023126734	0.22488755622188905	-0.1409295352323838	-0.5217391304347826	
1.6982425644288843E12	3.641304347826087	0.75	11.01086956521739	3.0	0.23998223998224	4166.975023126734	0.22788605697151423	-0.12893553223388304	-0.5157421289355322	
1.6982425644484148E12	3.6630434782608696	0.7391304347826086	11.032608695652174	3.0	0.23998223998224	4166.975023126734	0.22038980509745126	-0.12743628185907047	-0.512743628185907	
1.6982425644679453E12	3.5760869565217392	0.717391304347826	11.054347826086957	3.0	0.24042624042624045	4159.279778393351	0.22788605697151423	-0.13043478260869565	-0.512743628185907	
1.6982425644874756E12	3.5	0.7282608695652174	10.945652173913043	3.0	0.23998223998224	4166.975023126734	0.22938530734632684	-0.13043478260869565	-0.5037481259370314	
1.698242564507006E12	3.619565217391304	0.6956521739130435	10.934782608695652	3.0	0.24042624042624045	4159.279778393351	0.22938530734632684	-0.12593703148425786	-0.5097451274362819	
1.6982425645265366E12	3.641304347826087	0.7065217391304348	10.967391304347826	3.0	0.24042624042624045	4159.279778393351	0.22938530734632684	-0.13193403298350825	-0.5037481259370314	
1.6982425645460671E12	3.641304347826087	0.6956521739130435	10.989130434782608	3.0	0.24042624042624045	4159.279778393351	0.22938530734632684	-0.12893553223388304	-0.5232383808095952	
1.6982425645655974E12	3.608695652173913	0.7065217391304348	11.01086956521739	3.0	0.24042624042624045	4159.279778393351	0.22338830584707645	-0.12443778110944527	-0.5097451274362819	
1.698242564585128E12	3.5978260869565215	0.717391304347826	10.978260869565217	3.0	0.23998223998224	4166.975023126734	0.21889055472263869	-0.12593703148425786	-0.5217391304347826	
1.6982425646046584E12	3.608695652173913	0.6630434782608695	11.01086956521739	3.0	0.24042624042624045	4159.279778393351	0.22188905547226387	-0.12593703148425786	-0.5097451274362819	
1.6982425646241887E12	3.5652173913043477	0.6739130434782609	10.978260869565217	3.0	0.24042624042624045	4159.279778393351	0.22038980509745126	-0.12743628185907047	-0.5247376311844077	
1.6982425646437192E12	3.5543478260869565	0.7065217391304348	10.967391304347826	3.0	0.23998223998224	4166.975023126734	0.2338830584707646	-0.13343328335832083	-0.52023988005997	
1.6982425646632498E12	3.5760869565217392	0.717391304347826	10.934782608695652	3.0	0.23998223998224	4166.975023126734	0.22338830584707645	-0.11544227886056971	-0.5157421289355322	
1.6982425646827803E12	3.619565217391304	0.7282608695652174	10.956521739130434	3.0	0.23998223998224	4166.975023126734	0.23238380809595202	-0.12293853073463268	-0.5157421289355322	
1.6982425647023105E12	3.652173913043478	0.717391304347826	10.978260869565217	3.0	0.24042624042624045	4159.279778393351	0.21739130434782608	-0.13493253373313344	-0.5172413793103449	
1.698242564721841E12	3.5760869565217392	0.7282608695652174	10.967391304347826	3.0	0.24042624042624045	4159.279778393351	0.22638680659670163	-0.12293853073463268	-0.5097451274362819	
1.6982425647413716E12	3.5652173913043477	0.7391304347826086	10.989130434782608	3.0	0.24042624042624045	4159.279778393351	0.22038980509745126	-0.13343328335832083	-0.5172413793103449	
1.6982425647609019E12	3.5978260869565215	0.7065217391304348	11.0	3.0	0.23998223998224	4166.975023126734	0.22488755622188905	-0.12443778110944527	-0.5022488755622189	
1.6982425647804324E12	3.6630434782608696	0.717391304347826	10.978260869565217	3.0	0.24042624042624045	4159.279778393351	0.23088455772113942	-0.12443778110944527	-0.505247376311844	
1.698242564799963E12	3.608695652173913	0.7282608695652174	11.0	3.0	0.23998223998224	4166.975023126734	0.22788605697151423	-0.13343328335832083	-0.5097451274362819	
1.6982425648194934E12	3.5869565217391304	0.6956521739130435	10.978260869565217	3.0	0.24042624042624045	4159.279778393351	0.2368815592203898	-0.1184407796101949	-0.505247376311844	
1.6982425648390237E12	3.5978260869565215	0.717391304347826	11.0	3.0	0.24042624042624045	4159.279778393351	0.22938530734632684	-0.12593703148425786	-0.5187406296851574	
1.6982425648585542E12	3.608695652173913	0.6956521739130435	10.989130434782608	3.0	0.23998223998224	4166.975023126734	0.21739130434782608	-0.13043478260869565	-0.505247376311844	
1.6982425648780847E12	3.5652173913043477	0.717391304347826	10.967391304347826	3.0	0.24042624042624045	4159.279778393351	0.22488755622188905	-0.12893553223388304	-0.5142428785607196	
1.6982425648976152E12	3.5760869565217392	0.717391304347826	10.945652173913043	3.0	0.24042624042624045	4159.279778393351	0.23088455772113942	-0.1394302848575712	-0.5157421289355322	
1.6982425649171455E12	3.5978260869565215	0.6956521739130435	10.989130434782608	3.0	0.24042624042624045	4159.279778393351	0.22038980509745126	-0.12443778110944527	-0.5187406296851574	
1.698242564936676E12	3.608695652173913	0.6956521739130435	10.956521739130434	3.0	0.2408702408702409	4151.612903225806	0.23238380809595202	-0.13193403298350825	-0.505247376311844	
1.6982425649562065E12	3.608695652173913	0.7282608695652174	11.021739130434783	3.0	0.23998223998224	4166.975023126734	0.22788605697151423	-0.1199400299850075	-0.5157421289355322	
1.6982425649757368E12	3.608695652173913	0.75	11.021739130434783	3.0	0.24042624042624045	4159.279778393351	0.22638680659670163	-0.13493253373313344	-0.5172413793103449	
1.6982425649952673E12	3.5869565217391304	0.7282608695652174	11.01086956521739	3.0	0.24042624042624045	4159.279778393351	0.22938530734632684	-0.12143928035982009	-0.5157421289355322	
1.6982425650147979E12	3.5869565217391304	0.717391304347826	10.967391304347826	3.0	0.24042624042624045	4159.279778393351	0.22638680659670163	-0.1424287856071964	-0.5142428785607196	
1.6982425650343284E12	3.5978260869565215	0.6739130434782609	10.945652173913043	3.0	0.24042624042624045	4159.279778393351	0.22938530734632684	-0.12743628185907047	-0.5217391304347826	
1.6982425650538586E12	3.5760869565217392	0.717391304347826	10.978260869565217	3.0	0.24042624042624045	4159.279778393351	0.22338830584707645	-0.13043478260869565	-0.5097451274362819	
1.6982425650733892E12	3.5978260869565215	0.7065217391304348	10.989130434782608	3.0	0.24042624042624045	4159.279778393351	0.22638680659670163	-0.12893553223388304	-0.5112443778110944	
1.6982425650929197E12	3.619565217391304	0.717391304347826	10.945652173913043	3.0	0.24042624042624045	4159.279778393351	0.22938530734632684	-0.13043478260869565	-0.5157421289355322	
1.6982425651124502E12	3.5978260869565215	0.7282608695652174	10.956521739130434	3.0	0.24042624042624045	4159.279778393351	0.21739130434782608	-0.13343328335832083	-0.5112443778110944	
1.6982425651319805E12	3.5760869565217392	0.6956521739130435	11.0	3.0	0.24042624042624045	4159.279778393351	0.22488755622188905	-0.14392803598200898	-0.5217391304347826	
1.698242565151511E12	3.5869565217391304	0.7065217391304348	11.021739130434783	3.0	0.24042624042624045	4159.279778393351	0.22338830584707645	-0.13343328335832083	-0.52023988005997	
1.6982425651710415E12	3.5978260869565215	0.7065217391304348	11.0	3.0	0.24042624042624045	4159.279778393351	0.22488755622188905	-0.13343328335832083	-0.5157421289355322	
1.6982425651905718E12	3.543478260869565	0.7065217391304348	10.956521739130434	3.0	0.24042624042624045	4159.279778393351	0.23238380809595202	-0.12893553223388304	-0.5322338830584707	
1.6982425652101023E12	3.510869565217391	0.7065217391304348	10.956521739130434	3.0	0.24042624042624045	4159.279778393351	0.22338830584707645	-0.1454272863568216	-0.52023988005997	
1.6982425652296328E12	3.5652173913043477	0.6847826086956521	10.978260869565217	3.0	0.24042624042624045	4159.279778393351	0.22488755622188905	-0.12593703148425786	-0.527736131934033	
1.6982425652491633E12	3.608695652173913	0.6630434782608695	10.989130434782608	3.0	0.2408702408702409	4151.612903225806	0.22638680659670163	-0.11394302848575712	-0.512743628185907	
1.6982425652686936E12	3.6304347826086953	0.6956521739130435	11.043478260869565	3.0	0.24042624042624045	4159.279778393351	0.22788605697151423	-0.1409295352323838	-0.512743628185907	
1.698242565288224E12	3.5978260869565215	0.7065217391304348	11.0	3.0	0.2408702408702409	4151.612903225806	0.2353823088455772	-0.14392803598200898	-0.5247376311844077	
1.6982425653077546E12	3.5543478260869565	0.6956521739130435	11.0	3.0	0.2408702408702409	4151.612903225806	0.21739130434782608	-0.1199400299850075	-0.5157421289355322	
1.698242565327285E12	3.5543478260869565	0.7065217391304348	10.945652173913043	3.0	0.2408702408702409	4151.612903225806	0.22638680659670163	-0.12743628185907047	-0.5157421289355322	
1.6982425653468154E12	3.543478260869565	0.717391304347826	10.989130434782608	3.0	0.2408702408702409	4151.612903225806	0.22788605697151423	-0.12743628185907047	-0.5097451274362819	
1.698242565366346E12	3.5869565217391304	0.6956521739130435	11.021739130434783	3.0	0.24042624042624045	4159.279778393351	0.22788605697151423	-0.13343328335832083	-0.512743628185907	
1.6982425653858765E12	3.5978260869565215	0.7282608695652174	10.989130434782608	3.0	0.2408702408702409	4151.612903225806	0.23088455772113942	-0.12443778110944527	-0.512743628185907	
1.6982425654054067E12	3.5869565217391304	0.7391304347826086	10.978260869565217	3.0	0.2408702408702409	4151.612903225806	0.22638680659670163	-0.12743628185907047	-0.5097451274362819	
1.6982425654249373E12	3.543478260869565	0.6847826086956521	10.989130434782608	3.0	0.2408702408702409	4151.612903225806	0.22338830584707645	-0.12743628185907047	-0.5112443778110944	
1.6982425654444678E12	3.5543478260869565	0.6739130434782609	10.978260869565217	3.0	0.2408702408702409	4151.612903225806	0.22788605697151423	-0.1394302848575712	-0.5097451274362819	
1.6982425654639983E12	3.5978260869565215	0.6847826086956521	10.989130434782608	3.0	0.2408702408702409	4151.612903225806	0.22488755622188905	-0.12293853073463268	-0.5157421289355322	
1.6982425654835286E12	3.5869565217391304	0.6521739130434783	11.01086956521739	3.0	0.24042624042624045	4159.279778393351	0.22188905547226387	-0.12743628185907047	-0.5142428785607196	
1.698242565503059E12	3.5869565217391304	0.6739130434782609	10.989130434782608	3.0	0.2408702408702409	4151.612903225806	0.22638680659670163	-0.13493253373313344	-0.5082458770614693	
1.6982425655225896E12	3.619565217391304	0.717391304347826	10.978260869565217	3.0	0.2408702408702409	4151.612903225806	0.22938530734632684	-0.12143928035982009	-0.5112443778110944	
1.6982425655421199E12	3.5543478260869565	0.717391304347826	10.978260869565217	3.0	0.2413142413142413	4143.974241030359	0.22938530734632684	-0.12743628185907047	-0.5232383808095952	
1.6982425655616504E12	3.543478260869565	0.717391304347826	10.978260869565217	3.0	0.2413142413142413	4143.974241030359	0.22338830584707645	-0.12293853073463268	-0.5142428785607196	
1.698242565581181E12	3.543478260869565	0.6630434782608695	10.978260869565217	3.0	0.2408702408702409	4151.612903225806	0.2338830584707646	-0.1394302848575712	-0.52023988005997	
1.6982425656007114E12	3.543478260869565	0.6630434782608695	10.956521739130434	3.0	0.2408702408702409	4151.612903225806	0.2368815592203898	-0.12893553223388304	-0.5112443778110944	
1.6982425656202417E12	3.532608695652174	0.6630434782608695	10.945652173913043	3.0	0.2408702408702409	4151.612903225806	0.22488755622188905	-0.12743628185907047	-0.52023988005997	
1.6982425656397722E12	3.532608695652174	0.6956521739130435	10.989130434782608	3.0	0.2417582417582418	4136.363636363636	0.22488755622188905	-0.12893553223388304	-0.5112443778110944	
1.6982425656593027E12	3.5978260869565215	0.6847826086956521	10.989130434782608	3.0	0.2408702408702409	4151.612903225806	0.21739130434782608	-0.12293853073463268	-0.52023988005997	
1.698242565678833E12	3.6304347826086953	0.6739130434782609	10.967391304347826	3.0	0.2413142413142413	4143.974241030359	0.22488755622188905	-0.13043478260869565	-0.5172413793103449	
1.6982425656983635E12	3.5869565217391304	0.7065217391304348	10.945652173913043	3.0	0.2413142413142413	4143.974241030359	0.22788605697151423	-0.12293853073463268	-0.512743628185907	
1.698242565717894E12	3.5652173913043477	0.717391304347826	10.945652173913043	3.0	0.2413142413142413	4143.974241030359	0.23238380809595202	-0.13043478260869565	-0.5142428785607196	
1.6982425657374246E12	3.5652173913043477	0.6956521739130435	10.967391304347826	3.0	0.2417582417582418	4136.363636363636	0.22338830584707645	-0.136431784107946	-0.512743628185907	
1.6982425657569548E12	3.543478260869565	0.6847826086956521	10.989130434782608	3.0	0.2413142413142413	4143.974241030359	0.22938530734632684	-0.13043478260869565	-0.5097451274362819	
1.6982425657764854E12	3.619565217391304	0.6847826086956521	11.021739130434783	3.0	0.2413142413142413	4143.974241030359	0.22638680659670163	-0.12293853073463268	-0.5142428785607196	
1.6982425657960159E12	3.5652173913043477	0.6630434782608695	10.956521739130434	3.0	0.2413142413142413	4143.974241030359	0.22938530734632684	-0.13343328335832083	-0.5097451274362819	
1.6982425658155464E12	3.4891304347826084	0.6521739130434783	10.956521739130434	3.0	0.2413142413142413	4143.974241030359	0.22638680659670163	-0.13193403298350825	-0.5082458770614693	
1.6982425658350767E12	3.510869565217391	0.6956521739130435	10.934782608695652	3.0	0.2413142413142413	4143.974241030359	0.22338830584707645	-0.13793103448275862	-0.512743628185907	
1.6982425658546072E12	3.532608695652174	0.6739130434782609	11.01086956521739	3.0	0.2413142413142413	4143.974241030359	0.22938530734632684	-0.13343328335832083	-0.5097451274362819	
1.6982425658741377E12	3.5978260869565215	0.7065217391304348	10.989130434782608	3.0	0.2413142413142413	4143.974241030359	0.22488755622188905	-0.13043478260869565	-0.5157421289355322	
1.698242565893668E12	3.5869565217391304	0.7282608695652174	10.989130434782608	3.0	0.2413142413142413	4143.974241030359	0.22638680659670163	-0.13343328335832083	-0.5097451274362819	
1.6982425659131985E12	3.5652173913043477	0.717391304347826	10.967391304347826	3.0	0.2417582417582418	4136.363636363636	0.21889055472263869	-0.12893553223388304	-0.5217391304347826	
1.698242565932729E12	3.5217391304347827	0.717391304347826	11.0	3.0	0.2413142413142413	4143.974241030359	0.22638680659670163	-0.1424287856071964	-0.4977511244377811	
1.6982425659522595E12	3.5869565217391304	0.6956521739130435	11.032608695652174	3.0	0.2417582417582418	4136.363636363636	0.22788605697151423	-0.13793103448275862	-0.5157421289355322	
1.6982425659717898E12	3.5652173913043477	0.6521739130434783	10.989130434782608	3.0	0.2413142413142413	4143.974241030359	0.22938530734632684	-0.12143928035982009	-0.505247376311844	
1.6982425659913203E12	3.5978260869565215	0.6521739130434783	10.978260869565217	3.0	0.2413142413142413	4143.974241030359	0.23238380809595202	-0.12743628185907047	-0.5187406296851574	
1.6982425660108508E12	3.532608695652174	0.6847826086956521	11.0	3.0	0.2413142413142413	4143.974241030359	0.23238380809595202	-0.1394302848575712	-0.512743628185907	
1.698242566030381E12	3.5543478260869565	0.6630434782608695	10.978260869565217	3.0	0.2417582417582418	4136.363636363636	0.22338830584707645	-0.1199400299850075	-0.5097451274362819	
1.6982425660499116E12	3.5217391304347827	0.6956521739130435	10.945652173913043	3.0	0.2417582417582418	4136.363636363636	0.22488755622188905	-0.12893553223388304	-0.5142428785607196	
1.6982425660694421E12	3.5652173913043477	0.6521739130434783	10.934782608695652	3.0	0.2417582417582418	4136.363636363636	0.23238380809595202	-0.13343328335832083	-0.5112443778110944	
1.6982425660889727E12	3.5217391304347827	0.6630434782608695	10.945652173913043	3.0	0.2417582417582418	4136.363636363636	0.2353823088455772	-0.12593703148425786	-0.5097451274362819	
1.698242566108503E12	3.4782608695652173	0.6630434782608695	10.978260869565217	3.0	0.2417582417582418	4136.363636363636	0.23238380809595202	-0.12143928035982009	-0.5172413793103449	
1.6982425661280334E12	3.5	0.6630434782608695	10.989130434782608	3.0	0.2417582417582418	4136.363636363636	0.22938530734632684	-0.13193403298350825	-0.52023988005997	
1.698242566147564E12	3.543478260869565	0.6630434782608695	10.989130434782608	3.0	0.2417582417582418	4136.363636363636	0.22938530734632684	-0.13493253373313344	-0.5187406296851574	
1.6982425661670945E12	3.5760869565217392	0.6413043478260869	11.0	3.0	0.2417582417582418	4136.363636363636	0.21889055472263869	-0.13493253373313344	-0.5097451274362819	
1.6982425661866248E12	3.5217391304347827	0.6739130434782609	10.978260869565217	3.0	0.2417582417582418	4136.363636363636	0.22488755622188905	-0.12593703148425786	-0.5097451274362819	
1.6982425662061553E12	3.5217391304347827	0.6630434782608695	11.0	3.0	0.2422022422022422	4128.78093492209	0.22638680659670163	-0.13493253373313344	-0.5157421289355322	
1.6982425662256858E12	3.532608695652174	0.6413043478260869	10.945652173913043	3.0	0.2422022422022422	4128.78093492209	0.22488755622188905	-0.1169415292353823	-0.52023988005997	
1.698242566245216E12	3.5760869565217392	0.6413043478260869	10.956521739130434	3.0	0.2417582417582418	4136.363636363636	0.22938530734632684	-0.12143928035982009	-0.5172413793103449	
1.6982425662647466E12	3.608695652173913	0.6521739130434783	10.989130434782608	3.0	0.2422022422022422	4128.78093492209	0.22938530734632684	-0.12593703148425786	-0.52023988005997	
1.698242566284277E12	3.467391304347826	0.6521739130434783	10.978260869565217	3.0	0.2422022422022422	4128.78093492209	0.22788605697151423	-0.12443778110944527	-0.5217391304347826	
1.6982425663038076E12	3.641304347826087	0.5978260869565217	10.815217391304348	3.0	0.2417582417582418	4136.363636363636	0.23238380809595202	-0.13193403298350825	-0.5112443778110944	
1.698242566323338E12	3.5543478260869565	0.6630434782608695	10.945652173913043	3.0	0.2422022422022422	4128.78093492209	0.22488755622188905	-0.1169415292353823	-0.512743628185907	
1.6982425663428684E12	3.5760869565217392	0.717391304347826	11.054347826086957	3.0	0.24264624264624265	4121.225983531564	0.23238380809595202	-0.12593703148425786	-0.5292353823088456	
1.698242566362399E12	3.4565217391304346	0.6847826086956521	11.01086956521739	3.0	0.2422022422022422	4128.78093492209	0.22788605697151423	-0.11394302848575712	-0.5067466266866567	
1.6982425663819292E12	3.608695652173913	0.75	10.967391304347826	3.0	0.24264624264624265	4121.225983531564	0.23088455772113942	-0.1184407796101949	-0.5097451274362819	
1.6982425664014597E12	3.510869565217391	0.6956521739130435	10.967391304347826	3.0	0.2422022422022422	4128.78093492209	0.22938530734632684	-0.13343328335832083	-0.505247376311844	
1.6982425664209902E12	3.5217391304347827	0.6521739130434783	10.978260869565217	3.0	0.24264624264624265	4121.225983531564	0.239880059970015	-0.13043478260869565	-0.5187406296851574	
1.6982425664405208E12	3.5543478260869565	0.6413043478260869	10.967391304347826	3.0	0.24264624264624265	4121.225983531564	0.22938530734632684	-0.13793103448275862	-0.512743628185907	
1.698242566460051E12	3.5	0.6413043478260869	11.01086956521739	3.0	0.24264624264624265	4121.225983531564	0.22938530734632684	-0.13493253373313344	-0.5157421289355322	
1.6982425664795815E12	3.5217391304347827	0.6847826086956521	10.978260869565217	3.0	0.24264624264624265	4121.225983531564	0.22788605697151423	-0.12143928035982009	-0.5082458770614693	
1.698242566499112E12	3.532608695652174	0.7065217391304348	10.989130434782608	3.0	0.24264624264624265	4121.225983531564	0.22488755622188905	-0.1409295352323838	-0.5097451274362819	
1.6982425665186426E12	3.5760869565217392	0.717391304347826	10.978260869565217	3.0	0.24264624264624265	4121.225983531564	0.22638680659670163	-0.12143928035982009	-0.5112443778110944	
1.6982425665381729E12	3.5652173913043477	0.6413043478260869	10.978260869565217	3.0	0.24264624264624265	4121.225983531564	0.22338830584707645	-0.12743628185907047	-0.5007496251874063	
1.6982425665577034E12	3.543478260869565	0.6521739130434783	11.0	3.0	0.24264624264624265	4121.225983531564	0.22938530734632684	-0.13343328335832083	-0.5037481259370314	
1.698242566577234E12	3.510869565217391	0.6847826086956521	11.0	3.0	0.24264624264624265	4121.225983531564	0.22788605697151423	-0.12143928035982009	-0.5142428785607196	
1.6982425665967642E12	3.5652173913043477	0.6956521739130435	11.0	3.0	0.24264624264624265	4121.225983531564	0.22488755622188905	-0.1169415292353823	-0.5022488755622189	
1.6982425666162947E12	3.5869565217391304	0.6630434782608695	11.0	3.0	0.2430902430902431	4113.698630136986	0.22638680659670163	-0.13193403298350825	-0.5232383808095952	
1.6982425666358252E12	3.5543478260869565	0.6739130434782609	10.934782608695652	3.0	0.24264624264624265	4121.225983531564	0.22338830584707645	-0.1184407796101949	-0.5187406296851574	
1.6982425666553557E12	3.532608695652174	0.6956521739130435	10.934782608695652	3.0	0.2430902430902431	4113.698630136986	0.23238380809595202	-0.1199400299850075	-0.5232383808095952	
1.698242566674886E12	3.543478260869565	0.6847826086956521	10.989130434782608	3.0	0.24264624264624265	4121.225983531564	0.21889055472263869	-0.1184407796101949	-0.505247376311844	
1.6982425666944165E12	3.4782608695652173	0.6739130434782609	10.989130434782608	3.0	0.24264624264624265	4121.225983531564	0.21739130434782608	-0.136431784107946	-0.5067466266866567	
1.698242566713947E12	3.5760869565217392	0.6413043478260869	10.989130434782608	3.0	0.2430902430902431	4113.698630136986	0.2338830584707646	-0.12743628185907047	-0.5097451274362819	
1.6982425667334775E12	3.5652173913043477	0.6847826086956521	11.01086956521739	3.0	0.2430902430902431	4113.698630136986	0.22638680659670163	-0.12593703148425786	-0.52023988005997	
1.6982425667530078E12	3.510869565217391	0.6956521739130435	10.989130434782608	3.0	0.2430902430902431	4113.698630136986	0.22638680659670163	-0.10944527736131934	-0.505247376311844	
1.6982425667725383E12	3.5652173913043477	0.6739130434782609	11.0	3.0	0.24264624264624265	4121.225983531564	0.23088455772113942	-0.13793103448275862	-0.5142428785607196	
1.6982425667920688E12	3.5869565217391304	0.6630434782608695	10.989130434782608	3.0	0.24264624264624265	4121.225983531564	0.22788605697151423	-0.1394302848575712	-0.5142428785607196	
1.698242566811599E12	3.543478260869565	0.6956521739130435	10.945652173913043	3.0	0.24264624264624265	4121.225983531564	0.22788605697151423	-0.13343328335832083	-0.5142428785607196	
1.6982425668311296E12	3.532608695652174	0.6630434782608695	11.0	3.0	0.24264624264624265	4121.225983531564	0.2338830584707646	-0.11544227886056971	-0.512743628185907	
1.6982425668506602E12	3.5652173913043477	0.6413043478260869	11.0	3.0	0.2430902430902431	4113.698630136986	0.22938530734632684	-0.12893553223388304	-0.5097451274362819	
1.6982425668701907E12	3.5760869565217392	0.6630434782608695	10.967391304347826	3.0	0.2430902430902431	4113.698630136986	0.22788605697151423	-0.1424287856071964	-0.52023988005997	
1.698242566889721E12	3.5652173913043477	0.6739130434782609	10.956521739130434	3.0	0.24264624264624265	4121.225983531564	0.22938530734632684	-0.13343328335832083	-0.52023988005997	
1.6982425669092515E12	3.5760869565217392	0.6739130434782609	10.945652173913043	3.0	0.2430902430902431	4113.698630136986	0.22638680659670163	-0.1184407796101949	-0.512743628185907	
1.698242566928782E12	3.5652173913043477	0.6630434782608695	10.989130434782608	3.0	0.2430902430902431	4113.698630136986	0.2353823088455772	-0.12743628185907047	-0.5172413793103449	
1.6982425669483123E12	3.5978260869565215	0.6739130434782609	11.021739130434783	3.0	0.24264624264624265	4121.225983531564	0.23088455772113942	-0.1184407796101949	-0.5187406296851574	
1.6982425669678428E12	3.5760869565217392	0.6739130434782609	10.967391304347826	3.0	0.2430902430902431	4113.698630136986	0.22938530734632684	-0.1199400299850075	-0.52023988005997	
1.6982425669873733E12	3.543478260869565	0.6739130434782609	10.967391304347826	3.0	0.24264624264624265	4121.225983531564	0.22038980509745126	-0.13193403298350825	-0.5082458770614693	
1.6982425670069038E12	3.3152173913043477	0.5869565217391304	10.934782608695652	3.0	0.24264624264624265	4121.225983531564	0.22488755622188905	-0.12443778110944527	-0.5097451274362819	
1.698242567026434E12	3.543478260869565	0.6739130434782609	11.08695652173913	3.0	0.24264624264624265	4121.225983531564	0.23238380809595202	-0.1184407796101949	-0.5187406296851574	
1.6982425670459646E12	3.5652173913043477	0.717391304347826	11.032608695652174	3.0	0.2430902430902431	4113.698630136986	0.22638680659670163	-0.12743628185907047	-0.512743628185907	
1.698242567065495E12	3.532608695652174	0.75	10.989130434782608	3.0	0.2430902430902431	4113.698630136986	0.22188905547226387	-0.13193403298350825	-0.5172413793103449	
1.6982425670850256E12	3.391304347826087	0.6304347826086957	11.021739130434783	3.0	0.24264624264624265	4121.225983531564	0.2338830584707646	-0.1199400299850075	-0.512743628185907	
1.698242567104556E12	3.619565217391304	0.7391304347826086	10.989130434782608	3.0	0.2430902430902431	4113.698630136986	0.22638680659670163	-0.13043478260869565	-0.5112443778110944	
1.6982425671240864E12	3.543478260869565	0.6847826086956521	10.956521739130434	3.0	0.2430902430902431	4113.698630136986	0.22788605697151423	-0.12143928035982009	-0.52023988005997	
1.698242567143617E12	3.619565217391304	0.6521739130434783	10.945652173913043	3.0	0.2430902430902431	4113.698630136986	0.21589205397301348	-0.12293853073463268	-0.5187406296851574	
1.6982425671631472E12	3.5543478260869565	0.6847826086956521	10.978260869565217	3.0	0.2430902430902431	4113.698630136986	0.2353823088455772	-0.13043478260869565	-0.5232383808095952	
1.6982425671826777E12	3.5217391304347827	0.7065217391304348	11.021739130434783	3.0	0.2430902430902431	4113.698630136986	0.23238380809595202	-0.1184407796101949	-0.5232383808095952	
1.6982425672022083E12	3.5760869565217392	0.6521739130434783	11.021739130434783	3.0	0.24264624264624265	4121.225983531564	0.22488755622188905	-0.1394302848575712	-0.5142428785607196	
1.6982425672217388E12	3.5869565217391304	0.6521739130434783	10.945652173913043	3.0	0.2430902430902431	4113.698630136986	0.2353823088455772	-0.11544227886056971	-0.5097451274362819	
1.698242567241269E12	3.543478260869565	0.6739130434782609	10.934782608695652	3.0	0.24264624264624265	4121.225983531564	0.22788605697151423	-0.13343328335832083	-0.5157421289355322	
1.6982425672607996E12	3.5	0.6739130434782609	10.989130434782608	3.0	0.24264624264624265	4121.225983531564	0.23088455772113942	-0.12143928035982009	-0.5082458770614693	
1.69824256728033E12	3.543478260869565	0.6521739130434783	11.0	3.0	0.2430902430902431	4113.698630136986	0.2338830584707646	-0.11544227886056971	-0.5082458770614693	
1.6982425672998604E12	3.619565217391304	0.6630434782608695	11.021739130434783	3.0	0.24264624264624265	4121.225983531564	0.22488755622188905	-0.12443778110944527	-0.5232383808095952	
1.6982425673193909E12	3.5760869565217392	0.6739130434782609	10.989130434782608	3.0	0.2430902430902431	4113.698630136986	0.22638680659670163	-0.12293853073463268	-0.5172413793103449	
1.6982425673389214E12	3.4565217391304346	0.717391304347826	10.967391304347826	3.0	0.24264624264624265	4121.225983531564	0.22038980509745126	-0.13193403298350825	-0.5097451274362819	
1.698242567358452E12	3.5217391304347827	0.7065217391304348	10.956521739130434	3.0	0.24264624264624265	4121.225983531564	0.22188905547226387	-0.1184407796101949	-0.5142428785607196	
1.6982425673779822E12	3.5760869565217392	0.6521739130434783	10.978260869565217	3.0	0.24264624264624265	4121.225983531564	0.22338830584707645	-0.1184407796101949	-0.5142428785607196	
1.6982425673975127E12	3.608695652173913	0.6956521739130435	10.978260869565217	3.0	0.2430902430902431	4113.698630136986	0.23238380809595202	-0.1199400299850075	-0.5112443778110944	
1.6982425674170432E12	3.5652173913043477	0.6847826086956521	10.978260869565217	3.0	0.24264624264624265	4121.225983531564	0.2128935532233883	-0.1199400299850075	-0.5217391304347826	
1.6982425674365737E12	3.510869565217391	0.6956521739130435	10.978260869565217	3.0	0.2430902430902431	4113.698630136986	0.22038980509745126	-0.13043478260869565	-0.512743628185907	
1.698242567456104E12	3.5652173913043477	0.6630434782608695	10.989130434782608	3.0	0.24264624264624265	4121.225983531564	0.22488755622188905	-0.13793103448275862	-0.5157421289355322	
1.6982425674756345E12	3.608695652173913	0.6630434782608695	10.989130434782608	3.0	0.24264624264624265	4121.225983531564	0.21889055472263869	-0.1184407796101949	-0.512743628185907	
1.698242567495165E12	3.5652173913043477	0.6739130434782609	10.956521739130434	3.0	0.24264624264624265	4121.225983531564	0.22488755622188905	-0.12893553223388304	-0.5157421289355322	
1.6982425675146953E12	3.532608695652174	0.6847826086956521	10.92391304347826	3.0	0.2430902430902431	4113.698630136986	0.22338830584707645	-0.12593703148425786	-0.5217391304347826	
1.6982425675342258E12	3.5760869565217392	0.6630434782608695	10.945652173913043	3.0	0.24264624264624265	4121.225983531564	0.22188905547226387	-0.1184407796101949	-0.5187406296851574	
1.6982425675537563E12	3.5869565217391304	0.6630434782608695	10.989130434782608	3.0	0.24264624264624265	4121.225983531564	0.22188905547226387	-0.12593703148425786	-0.512743628185907	
1.6982425675732869E12	3.5869565217391304	0.6630434782608695	10.989130434782608	3.0	0.24264624264624265	4121.225983531564	0.22338830584707645	-0.1184407796101949	-0.5232383808095952	
1.6982425675928171E12	3.4891304347826084	0.7065217391304348	10.956521739130434	3.0	0.24264624264624265	4121.225983531564	0.22638680659670163	-0.1199400299850075	-0.5217391304347826	
1.6982425676123477E12	3.467391304347826	0.717391304347826	10.934782608695652	3.0	0.2430902430902431	4113.698630136986	0.23088455772113942	-0.13193403298350825	-0.5232383808095952	
1.6982425676318782E12	3.5543478260869565	0.6630434782608695	11.0	3.0	0.24264624264624265	4121.225983531564	0.23088455772113942	-0.12293853073463268	-0.5172413793103449	
1.6982425676514084E12	3.619565217391304	0.6739130434782609	11.032608695652174	3.0	0.24264624264624265	4121.225983531564	0.22338830584707645	-0.1409295352323838	-0.52023988005997	
1.698242567670939E12	3.5652173913043477	0.6847826086956521	10.967391304347826	3.0	0.24264624264624265	4121.225983531564	0.22788605697151423	-0.12593703148425786	-0.5172413793103449	
1.6982425676904695E12	3.5543478260869565	0.6739130434782609	10.978260869565217	3.0	0.24264624264624265	4121.225983531564	0.23088455772113942	-0.12743628185907047	-0.5217391304347826	
1.69824256771E12	3.510869565217391	0.6956521739130435	10.967391304347826	3.0	0.24264624264624265	4121.225983531564	0.21889055472263869	-0.136431784107946	-0.5112443778110944	
1.6982425677295303E12	3.5869565217391304	0.6630434782608695	11.021739130434783	3.0	0.24264624264624265	4121.225983531564	0.22338830584707645	-0.13043478260869565	-0.5172413793103449	
1.6982425677490608E12	3.532608695652174	0.7065217391304348	10.956521739130434	3.0	0.24264624264624265	4121.225983531564	0.23088455772113942	-0.1394302848575712	-0.512743628185907	
1.6982425677685913E12	3.510869565217391	0.6739130434782609	10.934782608695652	3.0	0.24264624264624265	4121.225983531564	0.2338830584707646	-0.12443778110944527	-0.5097451274362819	
1.6982425677881218E12	3.510869565217391	0.6630434782608695	11.021739130434783	3.0	0.24264624264624265	4121.225983531564	0.22188905547226387	-0.13043478260869565	-0.5217391304347826	
1.698242567807652E12	3.510869565217391	0.6739130434782609	10.989130434782608	3.0	0.2422022422022422	4128.78093492209	0.23088455772113942	-0.136431784107946	-0.512743628185907	
1.6982425678271826E12	3.4891304347826084	0.6739130434782609	10.978260869565217	3.0	0.24264624264624265	4121.225983531564	0.22038980509745126	-0.1199400299850075	-0.5217391304347826	
1.6982425678467131E12	3.510869565217391	0.6413043478260869	10.978260869565217	3.0	0.24264624264624265	4121.225983531564	0.23088455772113942	-0.12293853073463268	-0.52023988005997	
1.6982425678662434E12	3.5652173913043477	0.6847826086956521	10.989130434782608	3.0	0.2422022422022422	4128.78093492209	0.22938530734632684	-0.11394302848575712	-0.512743628185907	
1.698242567885774E12	3.5869565217391304	0.6847826086956521	10.978260869565217	3.0	0.24264624264624265	4121.225983531564	0.22488755622188905	-0.1199400299850075	-0.5157421289355322	
1.6982425679053044E12	3.652173913043478	0.6956521739130435	10.989130434782608	3.0	0.24264624264624265	4121.225983531564	0.22188905547226387	-0.12893553223388304	-0.52023988005997	
1.698242567924835E12	3.5760869565217392	0.6847826086956521	10.945652173913043	3.0	0.24264624264624265	4121.225983531564	0.22638680659670163	-0.12893553223388304	-0.5232383808095952	
1.6982425679443652E12	3.532608695652174	0.6630434782608695	11.0	3.0	0.2422022422022422	4128.78093492209	0.22938530734632684	-0.1424287856071964	-0.52023988005997	
1.6982425679638958E12	3.532608695652174	0.6956521739130435	10.978260869565217	3.0	0.2422022422022422	4128.78093492209	0.22638680659670163	-0.1199400299850075	-0.5157421289355322	
1.6982425679834263E12	3.532608695652174	0.6739130434782609	11.0	3.0	0.24264624264624265	4121.225983531564	0.22788605697151423	-0.13043478260869565	-0.5142428785607196	
1.6982425680029565E12	3.5543478260869565	0.6630434782608695	10.989130434782608	3.0	0.24264624264624265	4121.225983531564	0.23088455772113942	-0.13793103448275862	-0.5172413793103449	
1.698242568022487E12	3.5543478260869565	0.6521739130434783	10.945652173913043	3.0	0.2422022422022422	4128.78093492209	0.22638680659670163	-0.12743628185907047	-0.5112443778110944	
1.6982425680420176E12	3.5217391304347827	0.6413043478260869	11.0	3.0	0.2422022422022422	4128.78093492209	0.22638680659670163	-0.12293853073463268	-0.5232383808095952	
1.698242568061548E12	3.5543478260869565	0.6847826086956521	11.021739130434783	3.0	0.24264624264624265	4121.225983531564	0.22638680659670163	-0.12443778110944527	-0.5097451274362819	
1.6982425680810784E12	3.5760869565217392	0.6413043478260869	11.0	3.0	0.24264624264624265	4121.225983531564	0.23088455772113942	-0.13793103448275862	-0.512743628185907	
1.698242568100609E12	3.5	0.6739130434782609	10.978260869565217	3.0	0.2422022422022422	4128.78093492209	0.22788605697151423	-0.12743628185907047	-0.5187406296851574	
1.6982425681201394E12	3.5217391304347827	0.6630434782608695	10.967391304347826	3.0	0.2422022422022422	4128.78093492209	0.22788605697151423	-0.12293853073463268	-0.505247376311844	
1.69824256813967E12	3.5760869565217392	0.6739130434782609	10.967391304347826	3.0	0.2422022422022422	4128.78093492209	0.22938530734632684	-0.1424287856071964	-0.5187406296851574	
1.6982425681592002E12	3.5760869565217392	0.6521739130434783	10.978260869565217	3.0	0.2422022422022422	4128.78093492209	0.23088455772113942	-0.12743628185907047	-0.52023988005997	
1.6982425681787307E12	3.4782608695652173	0.6739130434782609	10.956521739130434	3.0	0.2422022422022422	4128.78093492209	0.22638680659670163	-0.13343328335832083	-0.5172413793103449	
1.6982425681982612E12	3.5652173913043477	0.7065217391304348	11.0	3.0	0.2422022422022422	4128.78093492209	0.23238380809595202	-0.11394302848575712	-0.5157421289355322	
1.6982425682177915E12	3.608695652173913	0.6630434782608695	11.043478260869565	3.0	0.2422022422022422	4128.78093492209	0.22638680659670163	-0.13043478260869565	-0.5097451274362819	
1.698242568237322E12	3.608695652173913	0.6739130434782609	11.021739130434783	3.0	0.2422022422022422	4128.78093492209	0.22788605697151423	-0.13793103448275862	-0.5172413793103449	
1.6982425682568525E12	3.5760869565217392	0.6521739130434783	10.945652173913043	3.0	0.2422022422022422	4128.78093492209	0.22338830584707645	-0.11094452773613193	-0.5157421289355322	
1.698242568276383E12	3.532608695652174	0.6630434782608695	10.956521739130434	3.0	0.2417582417582418	4136.363636363636	0.22788605697151423	-0.13793103448275862	-0.5292353823088456	
1.6982425682959133E12	3.543478260869565	0.6630434782608695	10.967391304347826	3.0	0.2422022422022422	4128.78093492209	0.22788605697151423	-0.13343328335832083	-0.5247376311844077	
1.6982425683154438E12	3.5652173913043477	0.6630434782608695	10.989130434782608	3.0	0.2422022422022422	4128.78093492209	0.22338830584707645	-0.12893553223388304	-0.5082458770614693	
1.6982425683349744E12	3.5760869565217392	0.6847826086956521	10.989130434782608	3.0	0.2417582417582418	4136.363636363636	0.23088455772113942	-0.136431784107946	-0.5172413793103449	
1.6982425683545046E12	3.4782608695652173	0.7065217391304348	10.967391304347826	3.0	0.2417582417582418	4136.363636363636	0.2368815592203898	-0.13343328335832083	-0.5112443778110944	
1.6982425683740352E12	3.5869565217391304	0.6739130434782609	10.989130434782608	3.0	0.2422022422022422	4128.78093492209	0.22788605697151423	-0.136431784107946	-0.5217391304347826	
1.6982425683935657E12	3.608695652173913	0.6630434782608695	10.956521739130434	3.0	0.2422022422022422	4128.78093492209	0.23088455772113942	-0.12593703148425786	-0.52023988005997	
1.6982425684130962E12	3.5652173913043477	0.6739130434782609	10.978260869565217	3.0	0.2422022422022422	4128.78093492209	0.22338830584707645	-0.13343328335832083	-0.512743628185907	
1.6982425684326265E12	3.5652173913043477	0.6630434782608695	11.01086956521739	3.0	0.2417582417582418	4136.363636363636	0.22788605697151423	-0.13343328335832083	-0.512743628185907	
1.698242568452157E12	3.5652173913043477	0.6413043478260869	11.0	3.0	0.2417582417582418	4136.363636363636	0.2338830584707646	-0.1409295352323838	-0.5157421289355322	
1.6982425684716875E12	3.5760869565217392	0.6413043478260869	10.978260869565217	3.0	0.2422022422022422	4128.78093492209	0.23238380809595202	-0.1184407796101949	-0.5172413793103449	
1.698242568491218E12	3.532608695652174	0.6630434782608695	10.967391304347826	3.0	0.24264624264624265	4121.225983531564	0.23238380809595202	-0.12443778110944527	-0.5157421289355322	
1.6982425685107483E12	3.543478260869565	0.6739130434782609	10.978260869565217	3.0	0.2422022422022422	4128.78093492209	0.2338830584707646	-0.12293853073463268	-0.5097451274362819	
1.6982425685302788E12	3.5760869565217392	0.6630434782608695	11.0	3.0	0.2417582417582418	4136.363636363636	0.22938530734632684	-0.13343328335832083	-0.5142428785607196	
1.6982425685498093E12	3.543478260869565	0.6521739130434783	10.956521739130434	3.0	0.2422022422022422	4128.78093492209	0.22638680659670163	-0.1394302848575712	-0.5157421289355322	
1.6982425685693396E12	3.543478260869565	0.6630434782608695	10.989130434782608	3.0	0.2417582417582418	4136.363636363636	0.22338830584707645	-0.1424287856071964	-0.5082458770614693	
1.69824256858887E12	3.5	0.6847826086956521	10.956521739130434	3.0	0.2417582417582418	4136.363636363636	0.22788605697151423	-0.14392803598200898	-0.5232383808095952	
1.6982425686084006E12	3.5760869565217392	0.6521739130434783	10.989130434782608	3.0	0.2417582417582418	4136.363636363636	0.2368815592203898	-0.13493253373313344	-0.5097451274362819	
1.6982425686279312E12	3.619565217391304	0.6304347826086957	10.978260869565217	3.0	0.2417582417582418	4136.363636363636	0.23238380809595202	-0.13343328335832083	-0.5112443778110944	
1.6982425686474614E12	3.5760869565217392	0.6086956521739131	10.967391304347826	3.0	0.2417582417582418	4136.363636363636	0.22638680659670163	-0.1184407796101949	-0.5142428785607196	
1.698242568666992E12	3.5543478260869565	0.6630434782608695	10.978260869565217	3.0	0.2417582417582418	4136.363636363636	0.23238380809595202	-0.1199400299850075	-0.52023988005997	
1.6982425686865225E12	3.4891304347826084	0.717391304347826	10.978260869565217	3.0	0.2417582417582418	4136.363636363636	0.22188905547226387	-0.12893553223388304	-0.5142428785607196	
1.698242568706053E12	3.5869565217391304	0.6413043478260869	10.967391304347826	3.0	0.2417582417582418	4136.363636363636	0.22938530734632684	-0.1199400299850075	-0.5217391304347826	
1.6982425687255833E12	3.5652173913043477	0.6630434782608695	11.021739130434783	3.0	0.2417582417582418	4136.363636363636	0.22488755622188905	-0.13343328335832083	-0.5172413793103449	
1.6982425687451138E12	3.5760869565217392	0.6521739130434783	10.956521739130434	3.0	0.2413142413142413	4143.974241030359	0.22788605697151423	-0.13343328335832083	-0.5172413793103449	
1.6982425687646443E12	3.5652173913043477	0.6413043478260869	10.989130434782608	3.0	0.2417582417582418	4136.363636363636	0.22488755622188905	-0.1184407796101949	-0.52023988005997	
1.6982425687841746E12	3.543478260869565	0.6630434782608695	10.989130434782608	3.0	0.2417582417582418	4136.363636363636	0.2353823088455772	-0.1184407796101949	-0.52023988005997	
1.698242568803705E12	3.8369565217391304	0.6086956521739131	11.032608695652174	3.0	0.2417582417582418	4136.363636363636	0.22938530734632684	-0.12893553223388304	-0.5112443778110944	
1.6982425688232356E12	3.402173913043478	0.6195652173913043	10.967391304347826	3.0	0.2413142413142413	4143.974241030359	0.22638680659670163	-0.13493253373313344	-0.5112443778110944	
1.698242568842766E12	3.5760869565217392	0.7282608695652174	11.043478260869565	3.0	0.2417582417582418	4136.363636363636	0.22338830584707645	-0.12143928035982009	-0.5262368815592203	
1.6982425688622964E12	3.5	0.6630434782608695	10.91304347826087	3.0	0.2417582417582418	4136.363636363636	0.22038980509745126	-0.13493253373313344	-0.512743628185907	
1.698242568881827E12	3.6304347826086953	0.717391304347826	11.032608695652174	3.0	0.2417582417582418	4136.363636363636	0.23238380809595202	-0.11394302848575712	-0.5082458770614693	
1.6982425689013574E12	3.5760869565217392	0.7391304347826086	10.989130434782608	3.0	0.2413142413142413	4143.974241030359	0.22338830584707645	-0.12293853073463268	-0.5172413793103449	
1.6982425689208877E12	3.5978260869565215	0.6847826086956521	10.978260869565217	3.0	0.2417582417582418	4136.363636363636	0.2338830584707646	-0.1169415292353823	-0.5172413793103449	
1.6982425689404182E12	3.543478260869565	0.6521739130434783	10.945652173913043	3.0	0.2422022422022422	4128.78093492209	0.22338830584707645	-0.13043478260869565	-0.5232383808095952	
1.6982425689599487E12	3.5652173913043477	0.6195652173913043	11.01086956521739	3.0	0.2413142413142413	4143.974241030359	0.22788605697151423	-0.1424287856071964	-0.52023988005997	
1.6982425689794792E12	3.5869565217391304	0.6195652173913043	10.967391304347826	3.0	0.2417582417582418	4136.363636363636	0.22788605697151423	-0.12893553223388304	-0.5187406296851574	
1.6982425689990095E12	3.5869565217391304	0.6304347826086957	11.0	3.0	0.2413142413142413	4143.974241030359	0.22338830584707645	-0.12443778110944527	-0.512743628185907	
1.69824256901854E12	3.5978260869565215	0.6521739130434783	11.0	3.0	0.2417582417582418	4136.363636363636	0.2338830584707646	-0.11544227886056971	-0.5187406296851574	
1.6982425690380706E12	3.608695652173913	0.6413043478260869	10.945652173913043	3.0	0.2413142413142413	4143.974241030359	0.22488755622188905	-0.12743628185907047	-0.5157421289355322	
1.698242569057601E12	3.5760869565217392	0.6413043478260869	10.945652173913043	3.0	0.2413142413142413	4143.974241030359	0.22038980509745126	-0.1169415292353823	-0.5172413793103449	
1.6982425690771313E12	3.5	0.6195652173913043	10.956521739130434	3.0	0.2413142413142413	4143.974241030359	0.2338830584707646	-0.136431784107946	-0.505247376311844	
1.6982425690966619E12	3.5	0.6521739130434783	11.032608695652174	3.0	0.2413142413142413	4143.974241030359	0.22488755622188905	-0.1169415292353823	-0.5112443778110944	
1.6982425691161924E12	3.4782608695652173	0.5978260869565217	11.032608695652174	3.0	0.2413142413142413	4143.974241030359	0.22788605697151423	-0.13043478260869565	-0.512743628185907	
1.6982425691357227E12	3.4891304347826084	0.6304347826086957	10.967391304347826	3.0	0.2413142413142413	4143.974241030359	0.22638680659670163	-0.1184407796101949	-0.5142428785607196	
1.6982425691552532E12	3.532608695652174	0.6086956521739131	10.967391304347826	3.0	0.2413142413142413	4143.974241030359	0.22788605697151423	-0.11094452773613193	-0.5157421289355322	
1.6982425691747837E12	3.5217391304347827	0.6195652173913043	11.01086956521739	3.0	0.2417582417582418	4136.363636363636	0.22488755622188905	-0.12893553223388304	-0.5247376311844077	
1.6982425691943142E12	3.543478260869565	0.6195652173913043	10.989130434782608	3.0	0.2408702408702409	4151.612903225806	0.22938530734632684	-0.11544227886056971	-0.52023988005997	
1.6982425692138445E12	3.5869565217391304	0.6304347826086957	11.0	3.0	0.2408702408702409	4151.612903225806	0.23088455772113942	-0.11244377811094453	-0.5067466266866567	
1.698242569233375E12	3.543478260869565	0.6304347826086957	11.0	3.0	0.2413142413142413	4143.974241030359	0.22638680659670163	-0.11544227886056971	-0.5232383808095952	
1.6982425692529055E12	3.532608695652174	0.6521739130434783	11.0	3.0	0.2413142413142413	4143.974241030359	0.22188905547226387	-0.11244377811094453	-0.5097451274362819	
1.6982425692724358E12	3.543478260869565	0.5978260869565217	11.01086956521739	3.0	0.2413142413142413	4143.974241030359	0.22638680659670163	-0.11094452773613193	-0.5172413793103449	
1.6982425692919663E12	3.543478260869565	0.6304347826086957	10.934782608695652	3.0	0.2413142413142413	4143.974241030359	0.23088455772113942	-0.1169415292353823	-0.5037481259370314	
1.6982425693114968E12	3.5869565217391304	0.6739130434782609	11.0	3.0	0.2413142413142413	4143.974241030359	0.22638680659670163	-0.13193403298350825	-0.5067466266866567	
1.6982425693310273E12	3.608695652173913	0.6521739130434783	10.978260869565217	3.0	0.2413142413142413	4143.974241030359	0.23088455772113942	-0.12143928035982009	-0.5097451274362819	
1.6982425693505576E12	3.5978260869565215	0.6630434782608695	10.989130434782608	3.0	0.2413142413142413	4143.974241030359	0.22638680659670163	-0.13193403298350825	-0.5082458770614693	
1.6982425693700881E12	3.5978260869565215	0.5760869565217391	10.967391304347826	3.0	0.2413142413142413	4143.974241030359	0.22338830584707645	-0.12593703148425786	-0.5157421289355322	
1.6982425693896187E12	3.510869565217391	0.6086956521739131	10.945652173913043	3.0	0.2413142413142413	4143.974241030359	0.22038980509745126	-0.13193403298350825	-0.5097451274362819	
1.6982425694091492E12	3.510869565217391	0.6086956521739131	10.956521739130434	3.0	0.2413142413142413	4143.974241030359	0.22188905547226387	-0.13493253373313344	-0.5172413793103449	
1.6982425694286794E12	3.5652173913043477	0.6304347826086957	10.945652173913043	3.0	0.2413142413142413	4143.974241030359	0.22038980509745126	-0.12143928035982009	-0.5067466266866567	
1.69824256944821E12	3.543478260869565	0.6195652173913043	10.989130434782608	3.0	0.2413142413142413	4143.974241030359	0.23088455772113942	-0.1199400299850075	-0.5217391304347826	
1.6982425694677405E12	3.532608695652174	0.5978260869565217	10.978260869565217	3.0	0.2408702408702409	4151.612903225806	0.22338830584707645	-0.12893553223388304	-0.52023988005997	
1.6982425694872708E12	3.5217391304347827	0.6086956521739131	10.967391304347826	3.0	0.2408702408702409	4151.612903225806	0.22338830584707645	-0.12293853073463268	-0.52023988005997	
1.6982425695068013E12	3.5	0.6304347826086957	10.967391304347826	3.0	0.2408702408702409	4151.612903225806	0.22488755622188905	-0.12893553223388304	-0.5142428785607196	
1.6982425695263318E12	3.467391304347826	0.6195652173913043	10.956521739130434	3.0	0.2408702408702409	4151.612903225806	0.22788605697151423	-0.12143928035982009	-0.5142428785607196	
1.6982425695458623E12	3.510869565217391	0.6304347826086957	10.989130434782608	3.0	0.2413142413142413	4143.974241030359	0.22038980509745126	-0.12293853073463268	-0.5142428785607196	
1.6982425695653926E12	3.5869565217391304	0.6630434782608695	11.0	3.0	0.2413142413142413	4143.974241030359	0.23238380809595202	-0.12293853073463268	-0.5097451274362819	
1.698242569584923E12	3.608695652173913	0.5978260869565217	10.989130434782608	3.0	0.2408702408702409	4151.612903225806	0.22488755622188905	-0.12743628185907047	-0.52023988005997	
1.6982425696044536E12	3.5652173913043477	0.6086956521739131	10.934782608695652	3.0	0.2413142413142413	4143.974241030359	0.22188905547226387	-0.12893553223388304	-0.5082458770614693	
1.698242569623984E12	3.5	0.6195652173913043	10.934782608695652	3.0	0.2413142413142413	4143.974241030359	0.21589205397301348	-0.12293853073463268	-0.5112443778110944	
1.6982425696435144E12	3.543478260869565	0.6195652173913043	11.01086956521739	3.0	0.2413142413142413	4143.974241030359	0.22938530734632684	-0.11544227886056971	-0.512743628185907	
1.698242569663045E12	3.5217391304347827	0.5978260869565217	10.978260869565217	3.0	0.2413142413142413	4143.974241030359	0.22338830584707645	-0.11094452773613193	-0.5022488755622189	
1.6982425696825754E12	3.608695652173913	0.5869565217391304	10.989130434782608	3.0	0.2408702408702409	4151.612903225806	0.22788605697151423	-0.13043478260869565	-0.512743628185907	
1.6982425697021057E12	3.641304347826087	0.6195652173913043	11.0	3.0	0.2408702408702409	4151.612903225806	0.21739130434782608	-0.11544227886056971	-0.52023988005997	
1.6982425697216362E12	3.5652173913043477	0.6086956521739131	10.945652173913043	3.0	0.2413142413142413	4143.974241030359	0.22938530734632684	-0.1199400299850075	-0.5097451274362819	
1.6982425697411667E12	3.5652173913043477	0.6304347826086957	10.956521739130434	3.0	0.2408702408702409	4151.612903225806	0.23088455772113942	-0.1169415292353823	-0.5067466266866567	
1.6982425697606973E12	3.5760869565217392	0.6630434782608695	10.956521739130434	3.0	0.2413142413142413	4143.974241030359	0.2383808095952024	-0.1199400299850075	-0.52023988005997	
1.6982425697802275E12	3.5978260869565215	0.6304347826086957	10.956521739130434	3.0	0.2413142413142413	4143.974241030359	0.23088455772113942	-0.12893553223388304	-0.5142428785607196	
1.698242569799758E12	3.543478260869565	0.6413043478260869	10.978260869565217	3.0	0.2413142413142413	4143.974241030359	0.22488755622188905	-0.1184407796101949	-0.5082458770614693	
1.6982425698192886E12	3.543478260869565	0.6304347826086957	11.0	3.0	0.2408702408702409	4151.612903225806	0.22638680659670163	-0.11544227886056971	-0.5172413793103449	
1.6982425698388188E12	3.5760869565217392	0.6521739130434783	10.989130434782608	3.0	0.2408702408702409	4151.612903225806	0.22938530734632684	-0.1199400299850075	-0.5097451274362819	
1.6982425698583494E12	3.5652173913043477	0.6413043478260869	10.945652173913043	3.0	0.2408702408702409	4151.612903225806	0.22788605697151423	-0.12893553223388304	-0.512743628185907	
1.69824256987788E12	3.5652173913043477	0.5760869565217391	10.956521739130434	3.0	0.2413142413142413	4143.974241030359	0.2338830584707646	-0.1199400299850075	-0.505247376311844	
1.6982425698974104E12	3.5543478260869565	0.5978260869565217	10.967391304347826	3.0	0.2408702408702409	4151.612903225806	0.22338830584707645	-0.12443778110944527	-0.5187406296851574	
1.6982425699169407E12	3.4891304347826084	0.5760869565217391	10.967391304347826	3.0	0.2408702408702409	4151.612903225806	0.23088455772113942	-0.13043478260869565	-0.5082458770614693	
1.6982425699364712E12	3.5217391304347827	0.6521739130434783	10.956521739130434	3.0	0.2408702408702409	4151.612903225806	0.22788605697151423	-0.12593703148425786	-0.5157421289355322	
1.6982425699560017E12	3.619565217391304	0.6086956521739131	11.021739130434783	3.0	0.2413142413142413	4143.974241030359	0.23088455772113942	-0.1394302848575712	-0.505247376311844	
1.698242569975532E12	3.5978260869565215	0.6086956521739131	11.021739130434783	3.0	0.2408702408702409	4151.612903225806	0.22038980509745126	-0.14392803598200898	-0.5142428785607196	
1.6982425699950625E12	3.5760869565217392	0.6195652173913043	10.978260869565217	3.0	0.2408702408702409	4151.612903225806	0.239880059970015	-0.12293853073463268	-0.505247376311844	
1.698242570014593E12	3.510869565217391	0.6956521739130435	10.92391304347826	3.0	0.2408702408702409	4151.612903225806	0.22938530734632684	-0.13493253373313344	-0.5097451274362819	
1.6982425700341235E12	3.608695652173913	0.6413043478260869	10.978260869565217	3.0	0.2413142413142413	4143.974241030359	0.23238380809595202	-0.13343328335832083	-0.5142428785607196	
1.6982425700536538E12	3.5869565217391304	0.5978260869565217	10.989130434782608	3.0	0.2408702408702409	4151.612903225806	0.21889055472263869	-0.12743628185907047	-0.5067466266866567	
1.6982425700731843E12	3.5978260869565215	0.5978260869565217	10.989130434782608	3.0	0.2408702408702409	4151.612903225806	0.22038980509745126	-0.1409295352323838	-0.5142428785607196	
1.6982425700927148E12	3.5652173913043477	0.6304347826086957	10.967391304347826	3.0	0.2408702408702409	4151.612903225806	0.22338830584707645	-0.1169415292353823	-0.5082458770614693	
1.6982425701122454E12	3.5760869565217392	0.6413043478260869	10.978260869565217	3.0	0.2408702408702409	4151.612903225806	0.22338830584707645	-0.12893553223388304	-0.5007496251874063	
1.6982425701317756E12	3.5760869565217392	0.5869565217391304	11.0	3.0	0.2408702408702409	4151.612903225806	0.22188905547226387	-0.12143928035982009	-0.5232383808095952	
1.6982425701513062E12	3.5978260869565215	0.6413043478260869	10.956521739130434	3.0	0.2408702408702409	4151.612903225806	0.22788605697151423	-0.12443778110944527	-0.5082458770614693	
1.6982425701708367E12	3.5652173913043477	0.6086956521739131	10.978260869565217	3.0	0.2408702408702409	4151.612903225806	0.22938530734632684	-0.13493253373313344	-0.5172413793103449	
1.698242570190367E12	3.5760869565217392	0.6086956521739131	10.91304347826087	3.0	0.2408702408702409	4151.612903225806	0.23088455772113942	-0.13343328335832083	-0.5187406296851574	
1.6982425702098975E12	3.5652173913043477	0.6521739130434783	10.967391304347826	3.0	0.2408702408702409	4151.612903225806	0.22038980509745126	-0.11094452773613193	-0.5112443778110944	
1.698242570229428E12	3.5978260869565215	0.6304347826086957	11.01086956521739	3.0	0.2408702408702409	4151.612903225806	0.22638680659670163	-0.12593703148425786	-0.505247376311844	
1.6982425702489585E12	3.5869565217391304	0.6304347826086957	11.054347826086957	3.0	0.2408702408702409	4151.612903225806	0.23088455772113942	-0.12593703148425786	-0.5112443778110944	
1.6982425702684888E12	3.5869565217391304	0.6195652173913043	10.989130434782608	3.0	0.2413142413142413	4143.974241030359	0.2338830584707646	-0.1184407796101949	-0.5067466266866567	
1.6982425702880193E12	3.532608695652174	0.6847826086956521	10.92391304347826	3.0	0.2408702408702409	4151.612903225806	0.22788605697151423	-0.13343328335832083	-0.5142428785607196	
1.6982425703075498E12	3.5760869565217392	0.6739130434782609	10.956521739130434	3.0	0.24042624042624045	4159.279778393351	0.22638680659670163	-0.13193403298350825	-0.5187406296851574	
1.6982425703270803E12	3.5652173913043477	0.6304347826086957	11.0	3.0	0.2408702408702409	4151.612903225806	0.22638680659670163	-0.13793103448275862	-0.4977511244377811	
1.6982425703466106E12	3.608695652173913	0.6086956521739131	10.978260869565217	3.0	0.2408702408702409	4151.612903225806	0.22488755622188905	-0.12443778110944527	-0.505247376311844	
1.698242570366141E12	3.5978260869565215	0.5978260869565217	10.967391304347826	3.0	0.24042624042624045	4159.279778393351	0.22038980509745126	-0.12143928035982009	-0.5232383808095952	
1.6982425703856716E12	3.5760869565217392	0.6521739130434783	10.967391304347826	3.0	0.2408702408702409	4151.612903225806	0.22788605697151423	-0.12443778110944527	-0.5217391304347826	
1.698242570405202E12	3.652173913043478	0.6413043478260869	10.989130434782608	3.0	0.2408702408702409	4151.612903225806	0.2338830584707646	-0.1394302848575712	-0.5187406296851574	
1.6982425704247324E12	3.6304347826086953	0.6630434782608695	11.021739130434783	3.0	0.2408702408702409	4151.612903225806	0.22188905547226387	-0.1424287856071964	-0.5142428785607196	
1.698242570444263E12	3.5543478260869565	0.6630434782608695	10.978260869565217	3.0	0.24042624042624045	4159.279778393351	0.2383808095952024	-0.136431784107946	-0.5112443778110944	
1.6982425704637935E12	3.532608695652174	0.6195652173913043	10.967391304347826	3.0	0.2408702408702409	4151.612903225806	0.2338830584707646	-0.1184407796101949	-0.512743628185907	
1.6982425704833237E12	3.467391304347826	0.6304347826086957	10.945652173913043	3.0	0.24042624042624045	4159.279778393351	0.22188905547226387	-0.13493253373313344	-0.5142428785607196	
1.6982425705028542E12	3.5	0.5869565217391304	10.978260869565217	3.0	0.2408702408702409	4151.612903225806	0.23088455772113942	-0.13193403298350825	-0.5112443778110944	
1.6982425705223848E12	3.5543478260869565	0.6195652173913043	10.989130434782608	3.0	0.24042624042624045	4159.279778393351	0.22188905547226387	-0.136431784107946	-0.5157421289355322	
1.698242570541915E12	3.608695652173913	0.6630434782608695	10.989130434782608	3.0	0.2408702408702409	4151.612903225806	0.22938530734632684	-0.1409295352323838	-0.5082458770614693	
1.6982425705614456E12	3.608695652173913	0.6739130434782609	10.978260869565217	3.0	0.2408702408702409	4151.612903225806	0.22488755622188905	-0.1169415292353823	-0.5022488755622189	
1.698242570580976E12	3.6630434782608696	0.6521739130434783	11.0	3.0	0.2408702408702409	4151.612903225806	0.23088455772113942	-0.1199400299850075	-0.5082458770614693	
1.6982425706005066E12	3.652173913043478	0.6847826086956521	11.021739130434783	3.0	0.24042624042624045	4159.279778393351	0.21739130434782608	-0.12743628185907047	-0.5022488755622189	
1.6982425706200369E12	3.6304347826086953	0.6195652173913043	11.0	3.0	0.24042624042624045	4159.279778393351	0.22938530734632684	-0.13493253373313344	-0.5082458770614693	
1.6982425706395674E12	3.6630434782608696	0.6413043478260869	10.956521739130434	3.0	0.2408702408702409	4151.612903225806	0.23088455772113942	-0.10944527736131934	-0.5037481259370314	
1.698242570659098E12	3.4891304347826084	0.6304347826086957	10.956521739130434	3.0	0.2408702408702409	4151.612903225806	0.22488755622188905	-0.12443778110944527	-0.5097451274362819	
1.6982425706786284E12	3.510869565217391	0.6304347826086957	11.0	3.0	0.24042624042624045	4159.279778393351	0.23238380809595202	-0.13493253373313344	-0.5172413793103449	
1.6982425706981587E12	3.5652173913043477	0.6304347826086957	10.967391304347826	3.0	0.2408702408702409	4151.612903225806	0.2353823088455772	-0.1184407796101949	-0.5097451274362819	
1.6982425707176892E12	3.5652173913043477	0.6195652173913043	10.967391304347826	3.0	0.2408702408702409	4151.612903225806	0.2338830584707646	-0.1169415292353823	-0.4962518740629685	
1.6982425707372197E12	3.543478260869565	0.6521739130434783	10.967391304347826	3.0	0.2408702408702409	4151.612903225806	0.22938530734632684	-0.13493253373313344	-0.5097451274362819	
1.69824257075675E12	3.5652173913043477	0.6630434782608695	10.989130434782608	3.0	0.2408702408702409	4151.612903225806	0.22488755622188905	-0.13043478260869565	-0.5172413793103449	
1.6982425707762805E12	3.641304347826087	0.6195652173913043	10.989130434782608	3.0	0.24042624042624045	4159.279778393351	0.22338830584707645	-0.13343328335832083	-0.5142428785607196	
1.698242570795811E12	3.5978260869565215	0.6304347826086957	10.967391304347826	3.0	0.2408702408702409	4151.612903225806	0.22488755622188905	-0.1394302848575712	-0.512743628185907	
1.6982425708153416E12	3.532608695652174	0.6413043478260869	10.967391304347826	3.0	0.2408702408702409	4151.612903225806	0.2128935532233883	-0.1199400299850075	-0.512743628185907	
1.6982425708348718E12	3.4891304347826084	0.6304347826086957	10.92391304347826	3.0	0.24042624042624045	4159.279778393351	0.22188905547226387	-0.14392803598200898	-0.5112443778110944	
1.6982425708544023E12	3.5652173913043477	0.6304347826086957	10.967391304347826	3.0	0.2408702408702409	4151.612903225806	0.22638680659670163	-0.1169415292353823	-0.5112443778110944	
1.6982425708739329E12	3.5760869565217392	0.6847826086956521	11.0	3.0	0.2408702408702409	4151.612903225806	0.2143928035982009	-0.1184407796101949	-0.5112443778110944	
1.6982425708934631E12	3.641304347826087	0.6304347826086957	11.0	3.0	0.24042624042624045	4159.279778393351	0.22938530734632684	-0.12743628185907047	-0.5082458770614693	
1.6982425709129937E12	3.5652173913043477	0.6413043478260869	10.967391304347826	3.0	0.24042624042624045	4159.279778393351	0.22938530734632684	-0.12143928035982009	-0.5112443778110944	
1.6982425709325242E12	3.510869565217391	0.6413043478260869	10.967391304347826	3.0	0.24042624042624045	4159.279778393351	0.22488755622188905	-0.1199400299850075	-0.5067466266866567	
1.6982425709520547E12	3.5869565217391304	0.6413043478260869	11.01086956521739	3.0	0.24042624042624045	4159.279778393351	0.22938530734632684	-0.12593703148425786	-0.5157421289355322	
1.698242570971585E12	3.6304347826086953	0.6413043478260869	10.967391304347826	3.0	0.24042624042624045	4159.279778393351	0.2353823088455772	-0.11244377811094453	-0.5067466266866567	
1.6982425709911155E12	3.5978260869565215	0.6195652173913043	11.01086956521739	3.0	0.2408702408702409	4151.612903225806	0.22038980509745126	-0.12893553223388304	-0.5097451274362819	
1.698242571010646E12	3.5760869565217392	0.6304347826086957	10.978260869565217	3.0	0.2408702408702409	4151.612903225806	0.22938530734632684	-0.1409295352323838	-0.5187406296851574	
1.6982425710301765E12	3.619565217391304	0.6630434782608695	11.0	3.0	0.24042624042624045	4159.279778393351	0.22788605697151423	-0.1424287856071964	-0.5067466266866567	
1.6982425710497068E12	3.5760869565217392	0.6413043478260869	10.978260869565217	3.0	0.24042624042624045	4159.279778393351	0.2338830584707646	-0.13493253373313344	-0.5097451274362819	
1.6982425710692373E12	3.5652173913043477	0.6521739130434783	10.967391304347826	3.0	0.24042624042624045	4159.279778393351	0.22788605697151423	-0.12593703148425786	-0.5142428785607196	
1.6982425710887678E12	3.5869565217391304	0.6521739130434783	10.978260869565217	3.0	0.24042624042624045	4159.279778393351	0.22638680659670163	-0.13493253373313344	-0.5142428785607196	
1.698242571108298E12	3.5652173913043477	0.6195652173913043	10.967391304347826	3.0	0.2408702408702409	4151.612903225806	0.22638680659670163	-0.12143928035982009	-0.5097451274362819	
1.6982425711278286E12	3.5652173913043477	0.6304347826086957	10.967391304347826	3.0	0.24042624042624045	4159.279778393351	0.21739130434782608	-0.1409295352323838	-0.5217391304347826	
1.6982425711473591E12	3.6304347826086953	0.6521739130434783	10.989130434782608	3.0	0.2408702408702409	4151.612903225806	0.22938530734632684	-0.12893553223388304	-0.5187406296851574	
1.6982425711668896E12	3.6630434782608696	0.6195652173913043	11.01086956521739	3.0	0.24042624042624045	4159.279778393351	0.22188905547226387	-0.1169415292353823	-0.5142428785607196	
1.69824257118642E12	3.652173913043478	0.6630434782608695	10.967391304347826	3.0	0.2408702408702409	4151.612903225806	0.22638680659670163	-0.13043478260869565	-0.5217391304347826	
1.6982425712059504E12	3.5760869565217392	0.6304347826086957	10.934782608695652	3.0	0.24042624042624045	4159.279778393351	0.22638680659670163	-0.136431784107946	-0.5112443778110944	
1.698242571225481E12	3.5	0.6630434782608695	10.934782608695652	3.0	0.24042624042624045	4159.279778393351	0.22638680659670163	-0.13193403298350825	-0.5172413793103449	
1.6982425712450112E12	3.5652173913043477	0.6195652173913043	10.989130434782608	3.0	0.24042624042624045	4159.279778393351	0.22938530734632684	-0.1199400299850075	-0.5082458770614693	
1.6982425712645417E12	3.5760869565217392	0.6413043478260869	11.01086956521739	3.0	0.24042624042624045	4159.279778393351	0.22488755622188905	-0.13493253373313344	-0.5142428785607196	
1.6982425712840723E12	3.532608695652174	0.6630434782608695	11.01086956521739	3.0	0.24042624042624045	4159.279778393351	0.23088455772113942	-0.13493253373313344	-0.5187406296851574	
1.6982425713036028E12	3.5217391304347827	0.6521739130434783	10.945652173913043	3.0	0.24042624042624045	4159.279778393351	0.239880059970015	-0.13043478260869565	-0.52023988005997	
1.698242571323133E12	3.5760869565217392	0.6630434782608695	10.945652173913043	3.0	0.24042624042624045	4159.279778393351	0.22338830584707645	-0.13193403298350825	-0.5172413793103449	
1.6982425713426636E12	3.619565217391304	0.6630434782608695	11.01086956521739	3.0	0.2408702408702409	4151.612903225806	0.22938530734632684	-0.14692653673163417	-0.5172413793103449	
1.698242571362194E12	3.543478260869565	0.6413043478260869	11.097826086956522	3.0	0.24042624042624045	4159.279778393351	0.22788605697151423	-0.13343328335832083	-0.5247376311844077	
1.6982425713817246E12	3.608695652173913	0.6304347826086957	10.978260869565217	3.0	0.24042624042624045	4159.279778393351	0.22488755622188905	-0.13193403298350825	-0.5232383808095952	
1.698242571401255E12	3.543478260869565	0.6630434782608695	10.978260869565217	3.0	0.24042624042624045	4159.279778393351	0.22488755622188905	-0.12893553223388304	-0.5067466266866567	
1.6982425714207854E12	3.652173913043478	0.6195652173913043	11.0	3.0	0.24042624042624045	4159.279778393351	0.22188905547226387	-0.12743628185907047	-0.5112443778110944	
1.698242571440316E12	3.532608695652174	0.6739130434782609	11.021739130434783	3.0	0.2408702408702409	4151.612903225806	0.22038980509745126	-0.136431784107946	-0.512743628185907	
1.6982425714598462E12	3.619565217391304	0.6739130434782609	10.967391304347826	3.0	0.2408702408702409	4151.612903225806	0.22938530734632684	-0.12593703148425786	-0.5187406296851574	
1.6982425714793767E12	3.6304347826086953	0.6739130434782609	10.978260869565217	3.0	0.24042624042624045	4159.279778393351	0.22188905547226387	-0.1184407796101949	-0.5082458770614693	
1.6982425714989072E12	3.619565217391304	0.6521739130434783	10.978260869565217	3.0	0.2408702408702409	4151.612903225806	0.23088455772113942	-0.12443778110944527	-0.5112443778110944	
1.6982425715184377E12	3.5652173913043477	0.6413043478260869	11.0	3.0	0.24042624042624045	4159.279778393351	0.2338830584707646	-0.13043478260869565	-0.52023988005997	
1.698242571537968E12	3.5543478260869565	0.6413043478260869	10.978260869565217	3.0	0.24042624042624045	4159.279778393351	0.23088455772113942	-0.1169415292353823	-0.5232383808095952	
1.6982425715574985E12	3.5760869565217392	0.6521739130434783	10.989130434782608	3.0	0.24042624042624045	4159.279778393351	0.22638680659670163	-0.12743628185907047	-0.5112443778110944	
1.698242571577029E12	3.6304347826086953	0.6195652173913043	10.956521739130434	3.0	0.24042624042624045	4159.279778393351	0.22638680659670163	-0.13343328335832083	-0.5097451274362819	
1.6982425715965593E12	3.641304347826087	0.6195652173913043	10.967391304347826	3.0	0.24042624042624045	4159.279778393351	0.22038980509745126	-0.136431784107946	-0.512743628185907	
1.6982425716160898E12	3.5543478260869565	0.6413043478260869	10.978260869565217	3.0	0.24042624042624045	4159.279778393351	0.22038980509745126	-0.12743628185907047	-0.5112443778110944	
1.6982425716356204E12	3.5217391304347827	0.6413043478260869	10.978260869565217	3.0	0.24042624042624045	4159.279778393351	0.23238380809595202	-0.12593703148425786	-0.5187406296851574	
1.698242571655151E12	3.5760869565217392	0.6304347826086957	11.01086956521739	3.0	0.24042624042624045	4159.279778393351	0.22788605697151423	-0.11094452773613193	-0.5082458770614693	
1.6982425716746812E12	3.6304347826086953	0.6086956521739131	10.978260869565217	3.0	0.24042624042624045	4159.279778393351	0.22488755622188905	-0.1169415292353823	-0.52023988005997	
1.6982425716942117E12	3.5760869565217392	0.6195652173913043	10.934782608695652	3.0	0.24042624042624045	4159.279778393351	0.22788605697151423	-0.1454272863568216	-0.5157421289355322	
1.6982425717137422E12	3.5760869565217392	0.6195652173913043	10.989130434782608	3.0	0.24042624042624045	4159.279778393351	0.22938530734632684	-0.13043478260869565	-0.5082458770614693	
1.6982425717332727E12	3.5869565217391304	0.6413043478260869	11.0	3.0	0.24042624042624045	4159.279778393351	0.21739130434782608	-0.12443778110944527	-0.5157421289355322	
1.698242571752803E12	3.5869565217391304	0.6195652173913043	11.0	3.0	0.24042624042624045	4159.279778393351	0.21889055472263869	-0.12593703148425786	-0.5157421289355322	
1.6982425717723335E12	3.6304347826086953	0.6304347826086957	10.989130434782608	3.0	0.24042624042624045	4159.279778393351	0.22338830584707645	-0.13343328335832083	-0.5082458770614693	
1.698242571791864E12	3.5217391304347827	0.6521739130434783	10.978260869565217	3.0	0.24042624042624045	4159.279778393351	0.22338830584707645	-0.13343328335832083	-0.5157421289355322	
1.6982425718113943E12	3.5217391304347827	0.6413043478260869	10.92391304347826	3.0	0.24042624042624045	4159.279778393351	0.22788605697151423	-0.12743628185907047	-0.5097451274362819	
1.6982425718309248E12	3.5760869565217392	0.6413043478260869	11.01086956521739	3.0	0.24042624042624045	4159.279778393351	0.22938530734632684	-0.12593703148425786	-0.5022488755622189	
1.6982425718504553E12	3.608695652173913	0.6086956521739131	10.967391304347826	3.0	0.24042624042624045	4159.279778393351	0.22188905547226387	-0.12743628185907047	-0.5082458770614693	
1.6982425718699858E12	3.5978260869565215	0.6195652173913043	11.0	3.0	0.23998223998224	4166.975023126734	0.22638680659670163	-0.1169415292353823	-0.5172413793103449	
1.698242571889516E12	3.5978260869565215	0.6086956521739131	11.01086956521739	3.0	0.23998223998224	4166.975023126734	0.2353823088455772	-0.12143928035982009	-0.512743628185907	
1.6982425719090466E12	3.5869565217391304	0.6630434782608695	11.0	3.0	0.24042624042624045	4159.279778393351	0.22788605697151423	-0.13493253373313344	-0.505247376311844	
1.6982425719285771E12	3.619565217391304	0.5978260869565217	10.989130434782608	3.0	0.24042624042624045	4159.279778393351	0.2143928035982009	-0.12593703148425786	-0.5217391304347826	
1.6982425719481077E12	3.5543478260869565	0.6195652173913043	10.945652173913043	3.0	0.24042624042624045	4159.279778393351	0.22788605697151423	-0.12143928035982009	-0.5142428785607196	
1.698242571967638E12	3.5760869565217392	0.6086956521739131	10.967391304347826	3.0	0.24042624042624045	4159.279778393351	0.22188905547226387	-0.1169415292353823	-0.5082458770614693	
1.6982425719871685E12	3.5760869565217392	0.6304347826086957	10.945652173913043	3.0	0.24042624042624045	4159.279778393351	0.2338830584707646	-0.10944527736131934	-0.5067466266866567	
1.698242572006699E12	3.5760869565217392	0.6413043478260869	10.978260869565217	3.0	0.24042624042624045	4159.279778393351	0.22338830584707645	-0.12293853073463268	-0.5142428785607196	
1.6982425720262292E12	3.543478260869565	0.6413043478260869	10.989130434782608	3.0	0.24042624042624045	4159.279778393351	0.22938530734632684	-0.12893553223388304	-0.5217391304347826	
1.6982425720457598E12	3.5652173913043477	0.6086956521739131	10.978260869565217	3.0	0.23998223998224	4166.975023126734	0.22638680659670163	-0.14392803598200898	-0.512743628185907	
1.6982425720652903E12	3.5760869565217392	0.6413043478260869	10.978260869565217	3.0	0.24042624042624045	4159.279778393351	0.22788605697151423	-0.12743628185907047	-0.512743628185907	
1.6982425720848208E12	3.5869565217391304	0.5869565217391304	10.967391304347826	3.0	0.23998223998224	4166.975023126734	0.22788605697151423	-0.11544227886056971	-0.5097451274362819	
1.698242572104351E12	3.5543478260869565	0.6195652173913043	11.01086956521739	3.0	0.23998223998224	4166.975023126734	0.22788605697151423	-0.1199400299850075	-0.5097451274362819	
1.6982425721238816E12	3.5652173913043477	0.6195652173913043	10.967391304347826	3.0	0.23998223998224	4166.975023126734	0.22788605697151423	-0.12593703148425786	-0.5097451274362819	
1.698242572143412E12	3.543478260869565	0.6304347826086957	10.989130434782608	3.0	0.23998223998224	4166.975023126734	0.2338830584707646	-0.1184407796101949	-0.5142428785607196	
1.6982425721629424E12	3.5869565217391304	0.6086956521739131	11.0	3.0	0.23998223998224	4166.975023126734	0.22638680659670163	-0.1169415292353823	-0.512743628185907	
1.698242572182473E12	3.619565217391304	0.6195652173913043	10.989130434782608	3.0	0.23998223998224	4166.975023126734	0.22188905547226387	-0.1184407796101949	-0.5157421289355322	
1.6982425722020034E12	3.543478260869565	0.6304347826086957	10.978260869565217	3.0	0.24042624042624045	4159.279778393351	0.2338830584707646	-0.12743628185907047	-0.5037481259370314	
1.698242572221534E12	3.532608695652174	0.6630434782608695	10.945652173913043	3.0	0.24042624042624045	4159.279778393351	0.22488755622188905	-0.13043478260869565	-0.5142428785607196	
1.6982425722410642E12	3.5543478260869565	0.6413043478260869	10.989130434782608	3.0	0.23998223998224	4166.975023126734	0.22488755622188905	-0.12293853073463268	-0.505247376311844	
1.6982425722605947E12	3.5978260869565215	0.6086956521739131	10.989130434782608	3.0	0.23998223998224	4166.975023126734	0.22788605697151423	-0.12593703148425786	-0.5142428785607196	
1.6982425722801252E12	3.6304347826086953	0.6086956521739131	10.956521739130434	3.0	0.23998223998224	4166.975023126734	0.23088455772113942	-0.1199400299850075	-0.5307346326836582	
1.6982425722996558E12	3.5869565217391304	0.5978260869565217	10.989130434782608	3.0	0.23998223998224	4166.975023126734	0.22338830584707645	-0.12293853073463268	-0.5217391304347826	
1.698242572319186E12	3.532608695652174	0.6086956521739131	10.989130434782608	3.0	0.23998223998224	4166.975023126734	0.2368815592203898	-0.12293853073463268	-0.5247376311844077	
1.6982425723387166E12	3.532608695652174	0.5760869565217391	11.0	3.0	0.23998223998224	4166.975023126734	0.23088455772113942	-0.13793103448275862	-0.512743628185907	
1.698242572358247E12	3.5652173913043477	0.6195652173913043	10.956521739130434	3.0	0.23998223998224	4166.975023126734	0.23088455772113942	-0.136431784107946	-0.5082458770614693	
1.6982425723777773E12	3.543478260869565	0.6195652173913043	10.978260869565217	3.0	0.23998223998224	4166.975023126734	0.22188905547226387	-0.12293853073463268	-0.5247376311844077	
1.6982425723973079E12	3.5652173913043477	0.5978260869565217	10.989130434782608	3.0	0.23998223998224	4166.975023126734	0.23088455772113942	-0.12893553223388304	-0.5172413793103449	
1.6982425724168384E12	3.5543478260869565	0.5978260869565217	10.978260869565217	3.0	0.23998223998224	4166.975023126734	0.22188905547226387	-0.12893553223388304	-0.512743628185907	
1.698242572436369E12	3.5217391304347827	0.6521739130434783	10.989130434782608	3.0	0.23998223998224	4166.975023126734	0.2353823088455772	-0.13493253373313344	-0.5187406296851574	
1.6982425724558992E12	3.5217391304347827	0.6195652173913043	10.967391304347826	3.0	0.24042624042624045	4159.279778393351	0.22638680659670163	-0.1169415292353823	-0.52023988005997	
1.6982425724754297E12	3.608695652173913	0.5978260869565217	11.01086956521739	3.0	0.23998223998224	4166.975023126734	0.22038980509745126	-0.12293853073463268	-0.5172413793103449	
1.6982425724949602E12	3.608695652173913	0.6086956521739131	10.956521739130434	3.0	0.23998223998224	4166.975023126734	0.22188905547226387	-0.13193403298350825	-0.5187406296851574	
1.6982425725144905E12	3.5217391304347827	0.6304347826086957	10.956521739130434	3.0	0.24042624042624045	4159.279778393351	0.23088455772113942	-0.12143928035982009	-0.5172413793103449	
1.698242572534021E12	3.5652173913043477	0.6304347826086957	10.967391304347826	3.0	0.24042624042624045	4159.279778393351	0.2353823088455772	-0.11394302848575712	-0.5187406296851574	
1.6982425725535515E12	3.543478260869565	0.6304347826086957	10.945652173913043	3.0	0.24042624042624045	4159.279778393351	0.22638680659670163	-0.12743628185907047	-0.5187406296851574	
1.698242572573082E12	3.5543478260869565	0.6086956521739131	10.967391304347826	3.0	0.23998223998224	4166.975023126734	0.22638680659670163	-0.12893553223388304	-0.5187406296851574	
1.6982425725926123E12	3.543478260869565	0.5869565217391304	10.989130434782608	3.0	0.23998223998224	4166.975023126734	0.22488755622188905	-0.12743628185907047	-0.5187406296851574	
1.6982425726121428E12	3.619565217391304	0.5869565217391304	10.967391304347826	3.0	0.23998223998224	4166.975023126734	0.22188905547226387	-0.12743628185907047	-0.5232383808095952	
1.6982425726316733E12	3.6304347826086953	0.5869565217391304	10.967391304347826	3.0	0.23998223998224	4166.975023126734	0.21889055472263869	-0.12293853073463268	-0.5247376311844077	
1.6982425726512039E12	3.5760869565217392	0.6304347826086957	11.01086956521739	3.0	0.23998223998224	4166.975023126734	0.21589205397301348	-0.12443778110944527	-0.5157421289355322	
1.6982425726707341E12	3.532608695652174	0.6195652173913043	10.934782608695652	3.0	0.24042624042624045	4159.279778393351	0.2368815592203898	-0.11094452773613193	-0.5187406296851574	
1.6982425726902646E12	3.510869565217391	0.6304347826086957	10.92391304347826	3.0	0.23998223998224	4166.975023126734	0.22038980509745126	-0.12143928035982009	-0.5022488755622189	
1.6982425727097952E12	3.5760869565217392	0.6630434782608695	10.945652173913043	3.0	0.23998223998224	4166.975023126734	0.22488755622188905	-0.13193403298350825	-0.5142428785607196	
1.6982425727293254E12	3.619565217391304	0.6086956521739131	10.967391304347826	3.0	0.23998223998224	4166.975023126734	0.22938530734632684	-0.12893553223388304	-0.5022488755622189	
1.698242572748856E12	3.5543478260869565	0.6413043478260869	10.989130434782608	3.0	0.23998223998224	4166.975023126734	0.22788605697151423	-0.12293853073463268	-0.512743628185907	
1.6982425727683865E12	3.5978260869565215	0.5978260869565217	10.956521739130434	3.0	0.24042624042624045	4159.279778393351	0.2143928035982009	-0.12893553223388304	-0.5157421289355322	
1.698242572787917E12	3.5760869565217392	0.6086956521739131	10.956521739130434	3.0	0.23998223998224	4166.975023126734	0.23238380809595202	-0.1199400299850075	-0.5172413793103449	
1.6982425728074473E12	3.5543478260869565	0.5978260869565217	10.956521739130434	3.0	0.23998223998224	4166.975023126734	0.22938530734632684	-0.13043478260869565	-0.5142428785607196	
1.6982425728269778E12	3.510869565217391	0.5978260869565217	10.945652173913043	3.0	0.23998223998224	4166.975023126734	0.22938530734632684	-0.11244377811094453	-0.5142428785607196	
1.6982425728465083E12	3.5760869565217392	0.6195652173913043	10.945652173913043	3.0	0.23998223998224	4166.975023126734	0.22338830584707645	-0.12593703148425786	-0.5142428785607196	
1.6982425728660386E12	3.5217391304347827	0.6086956521739131	10.956521739130434	3.0	0.23998223998224	4166.975023126734	0.22788605697151423	-0.10944527736131934	-0.5247376311844077	
1.698242572885569E12	3.4565217391304346	0.6086956521739131	11.021739130434783	3.0	0.23998223998224	4166.975023126734	0.21589205397301348	-0.13043478260869565	-0.5142428785607196	
1.6982425729050996E12	3.4891304347826084	0.6086956521739131	11.0	3.0	0.23998223998224	4166.975023126734	0.22038980509745126	-0.13043478260869565	-0.5142428785607196	
1.6982425729246301E12	3.532608695652174	0.5978260869565217	11.021739130434783	3.0	0.23998223998224	4166.975023126734	0.22788605697151423	-0.12143928035982009	-0.52023988005997	
1.6982425729441604E12	3.532608695652174	0.5869565217391304	10.934782608695652	3.0	0.23998223998224	4166.975023126734	0.22638680659670163	-0.13043478260869565	-0.5067466266866567	
1.698242572963691E12	3.5978260869565215	0.5978260869565217	10.945652173913043	3.0	0.23998223998224	4166.975023126734	0.23088455772113942	-0.12743628185907047	-0.5217391304347826	
1.6982425729832214E12	3.608695652173913	0.5978260869565217	11.0	3.0	0.23998223998224	4166.975023126734	0.22338830584707645	-0.13043478260869565	-0.5172413793103449	
1.698242573002752E12	3.5978260869565215	0.6304347826086957	10.956521739130434	3.0	0.23998223998224	4166.975023126734	0.22638680659670163	-0.12893553223388304	-0.5157421289355322	
1.6982425730222822E12	3.5652173913043477	0.6847826086956521	10.956521739130434	3.0	0.23998223998224	4166.975023126734	0.22488755622188905	-0.12143928035982009	-0.5142428785607196	
1.6982425730418127E12	3.608695652173913	0.6195652173913043	10.989130434782608	3.0	0.23998223998224	4166.975023126734	0.22938530734632684	-0.12443778110944527	-0.512743628185907	
1.6982425730613433E12	3.5760869565217392	0.5978260869565217	10.989130434782608	3.0	0.23998223998224	4166.975023126734	0.23238380809595202	-0.12143928035982009	-0.5172413793103449	
1.6982425730808735E12	3.532608695652174	0.6086956521739131	11.01086956521739	3.0	0.23953823953823958	4174.698795180722	0.22638680659670163	-0.11094452773613193	-0.5187406296851574	
1.698242573100404E12	3.543478260869565	0.6086956521739131	10.967391304347826	3.0	0.23998223998224	4166.975023126734	0.22788605697151423	-0.12293853073463268	-0.5067466266866567	
1.6982425731199346E12	3.5	0.6413043478260869	10.989130434782608	3.0	0.23998223998224	4166.975023126734	0.22938530734632684	-0.12143928035982009	-0.5187406296851574	
1.698242573139465E12	3.510869565217391	0.6195652173913043	10.978260869565217	3.0	0.23998223998224	4166.975023126734	0.22338830584707645	-0.12593703148425786	-0.52023988005997	
1.6982425731589954E12	3.5760869565217392	0.5760869565217391	10.945652173913043	3.0	0.24042624042624045	4159.279778393351	0.22938530734632684	-0.13343328335832083	-0.5217391304347826	
1.698242573178526E12	3.619565217391304	0.6195652173913043	10.967391304347826	3.0	0.23998223998224	4166.975023126734	0.22788605697151423	-0.12443778110944527	-0.527736131934033	
1.6982425731980564E12	3.5978260869565215	0.6304347826086957	11.0	3.0	0.23998223998224	4166.975023126734	0.22788605697151423	-0.13043478260869565	-0.5157421289355322	
1.6982425732175867E12	3.5543478260869565	0.6413043478260869	11.0	3.0	0.23998223998224	4166.975023126734	0.22188905547226387	-0.12893553223388304	-0.5217391304347826	
1.6982425732371172E12	3.5217391304347827	0.6630434782608695	11.0	3.0	0.23998223998224	4166.975023126734	0.2368815592203898	-0.13493253373313344	-0.5172413793103449	
1.6982425732566477E12	3.532608695652174	0.6086956521739131	10.956521739130434	3.0	0.23998223998224	4166.975023126734	0.22488755622188905	-0.12893553223388304	-0.5157421289355322	
1.6982425732761782E12	3.5543478260869565	0.6521739130434783	10.945652173913043	3.0	0.23998223998224	4166.975023126734	0.22638680659670163	-0.12743628185907047	-0.5157421289355322	
1.6982425732957085E12	3.5652173913043477	0.6413043478260869	10.967391304347826	3.0	0.23998223998224	4166.975023126734	0.22638680659670163	-0.13193403298350825	-0.5247376311844077	
1.698242573315239E12	3.5760869565217392	0.6521739130434783	11.0	3.0	0.23998223998224	4166.975023126734	0.22788605697151423	-0.14692653673163417	-0.5217391304347826	
1.6982425733347695E12	3.5978260869565215	0.6304347826086957	11.01086956521739	3.0	0.23953823953823958	4174.698795180722	0.22788605697151423	-0.13493253373313344	-0.5142428785607196	
1.6982425733543E12	3.608695652173913	0.5978260869565217	10.989130434782608	3.0	0.23998223998224	4166.975023126734	0.2338830584707646	-0.1184407796101949	-0.5112443778110944	
1.6982425733738303E12	3.5978260869565215	0.5978260869565217	11.0	3.0	0.23998223998224	4166.975023126734	0.22038980509745126	-0.12293853073463268	-0.5187406296851574	
1.6982425733933608E12	3.5543478260869565	0.6304347826086957	10.956521739130434	3.0	0.23998223998224	4166.975023126734	0.23088455772113942	-0.12893553223388304	-0.512743628185907	
1.6982425734128914E12	3.5217391304347827	0.6304347826086957	10.934782608695652	3.0	0.23998223998224	4166.975023126734	0.2143928035982009	-0.12743628185907047	-0.5172413793103449	
1.6982425734324216E12	3.543478260869565	0.5978260869565217	10.934782608695652	3.0	0.23998223998224	4166.975023126734	0.22938530734632684	-0.1169415292353823	-0.52023988005997	
1.6982425734519521E12	3.5543478260869565	0.6304347826086957	10.989130434782608	3.0	0.23998223998224	4166.975023126734	0.22938530734632684	-0.12143928035982009	-0.5247376311844077	
1.6982425734714827E12	3.543478260869565	0.6630434782608695	10.989130434782608	3.0	0.23998223998224	4166.975023126734	0.2143928035982009	-0.1169415292353823	-0.512743628185907	
1.6982425734910132E12	3.5543478260869565	0.6413043478260869	10.978260869565217	3.0	0.23998223998224	4166.975023126734	0.23238380809595202	-0.14392803598200898	-0.5232383808095952	
1.6982425735105435E12	3.5760869565217392	0.6413043478260869	10.967391304347826	3.0	0.23998223998224	4166.975023126734	0.23238380809595202	-0.11394302848575712	-0.5142428785607196	
1.698242573530074E12	3.641304347826087	0.6195652173913043	10.956521739130434	3.0	0.23998223998224	4166.975023126734	0.22038980509745126	-0.12743628185907047	-0.5262368815592203	
1.6982425735496045E12	3.5217391304347827	0.6521739130434783	10.978260869565217	3.0	0.23998223998224	4166.975023126734	0.2383808095952024	-0.11244377811094453	-0.5172413793103449	
1.698242573569135E12	3.510869565217391	0.6304347826086957	10.978260869565217	3.0	0.23998223998224	4166.975023126734	0.22188905547226387	-0.13493253373313344	-0.5097451274362819	
1.6982425735886653E12	3.5543478260869565	0.5978260869565217	11.0	3.0	0.23953823953823958	4174.698795180722	0.22638680659670163	-0.13193403298350825	-0.52023988005997	
1.6982425736081958E12	3.6304347826086953	0.5978260869565217	11.0	3.0	0.23998223998224	4166.975023126734	0.2338830584707646	-0.12593703148425786	-0.5007496251874063	
1.6982425736277263E12	3.5652173913043477	0.6630434782608695	10.967391304347826	3.0	0.23998223998224	4166.975023126734	0.22788605697151423	-0.12593703148425786	-0.52023988005997	
1.6982425736472566E12	3.532608695652174	0.6413043478260869	10.934782608695652	3.0	0.23998223998224	4166.975023126734	0.23088455772113942	-0.12443778110944527	-0.5142428785607196	
1.698242573666787E12	3.5760869565217392	0.6413043478260869	10.978260869565217	3.0	0.23998223998224	4166.975023126734	0.22188905547226387	-0.12443778110944527	-0.52023988005997	
1.6982425736863176E12	3.608695652173913	0.6413043478260869	10.967391304347826	3.0	0.23998223998224	4166.975023126734	0.22938530734632684	-0.11094452773613193	-0.5187406296851574	
1.6982425737058481E12	3.608695652173913	0.6304347826086957	10.967391304347826	3.0	0.23998223998224	4166.975023126734	0.2338830584707646	-0.13793103448275862	-0.5082458770614693	
1.6982425737253784E12	3.532608695652174	0.6304347826086957	10.956521739130434	3.0	0.23998223998224	4166.975023126734	0.23088455772113942	-0.12143928035982009	-0.5142428785607196	
1.698242573744909E12	3.5760869565217392	0.6521739130434783	11.01086956521739	3.0	0.23998223998224	4166.975023126734	0.22188905547226387	-0.13193403298350825	-0.5157421289355322	
1.6982425737644395E12	3.5869565217391304	0.6195652173913043	10.967391304347826	3.0	0.23998223998224	4166.975023126734	0.2338830584707646	-0.1169415292353823	-0.5022488755622189	
1.6982425737839697E12	3.543478260869565	0.6413043478260869	10.967391304347826	3.0	0.23998223998224	4166.975023126734	0.22788605697151423	-0.1184407796101949	-0.5172413793103449	
1.6982425738035002E12	3.5217391304347827	0.6304347826086957	10.967391304347826	3.0	0.23998223998224	4166.975023126734	0.22038980509745126	-0.1424287856071964	-0.505247376311844	
1.6982425738230308E12	3.543478260869565	0.6304347826086957	10.978260869565217	3.0	0.23998223998224	4166.975023126734	0.22638680659670163	-0.11244377811094453	-0.5172413793103449	
1.6982425738425613E12	3.619565217391304	0.6739130434782609	11.01086956521739	3.0	0.23953823953823958	4174.698795180722	0.22938530734632684	-0.12443778110944527	-0.5172413793103449	
1.6982425738620916E12	3.5652173913043477	0.6413043478260869	11.01086956521739	3.0	0.23998223998224	4166.975023126734	0.22938530734632684	-0.136431784107946	-0.5157421289355322	
1.698242573881622E12	3.543478260869565	0.6195652173913043	10.989130434782608	3.0	0.23998223998224	4166.975023126734	0.23238380809595202	-0.12143928035982009	-0.5187406296851574	
1.6982425739011526E12	3.5217391304347827	0.6413043478260869	11.01086956521739	3.0	0.23953823953823958	4174.698795180722	0.22788605697151423	-0.13043478260869565	-0.5187406296851574	
1.698242573920683E12	3.5869565217391304	0.5978260869565217	10.956521739130434	3.0	0.23998223998224	4166.975023126734	0.22638680659670163	-0.13493253373313344	-0.5232383808095952	
1.6982425739402134E12	3.608695652173913	0.6521739130434783	10.989130434782608	3.0	0.23998223998224	4166.975023126734	0.21889055472263869	-0.1169415292353823	-0.5142428785607196	
1.698242573959744E12	3.5978260869565215	0.6304347826086957	10.956521739130434	3.0	0.23998223998224	4166.975023126734	0.22488755622188905	-0.12293853073463268	-0.5112443778110944	
1.6982425739792744E12	3.5543478260869565	0.6304347826086957	10.978260869565217	3.0	0.23998223998224	4166.975023126734	0.22038980509745126	-0.13493253373313344	-0.5142428785607196	
1.6982425739988047E12	3.5543478260869565	0.5869565217391304	11.0	3.0	0.23998223998224	4166.975023126734	0.22488755622188905	-0.13193403298350825	-0.5247376311844077	
1.6982425740183352E12	3.532608695652174	0.6304347826086957	10.967391304347826	3.0	0.23998223998224	4166.975023126734	0.22638680659670163	-0.1169415292353823	-0.5172413793103449	
1.6982425740378657E12	3.532608695652174	0.6195652173913043	10.978260869565217	3.0	0.23998223998224	4166.975023126734	0.23088455772113942	-0.1199400299850075	-0.5217391304347826	
1.6982425740573962E12	3.543478260869565	0.6413043478260869	10.978260869565217	3.0	0.23998223998224	4166.975023126734	0.23088455772113942	-0.13493253373313344	-0.5112443778110944	
1.6982425740769265E12	3.5760869565217392	0.6413043478260869	11.0	3.0	0.23998223998224	4166.975023126734	0.22788605697151423	-0.12293853073463268	-0.5172413793103449	
1.698242574096457E12	3.5869565217391304	0.6521739130434783	10.989130434782608	3.0	0.23998223998224	4166.975023126734	0.22788605697151423	-0.12593703148425786	-0.52023988005997	
1.6982425741159875E12	3.5652173913043477	0.5869565217391304	10.989130434782608	3.0	0.23998223998224	4166.975023126734	0.22488755622188905	-0.12293853073463268	-0.5157421289355322	
1.6982425741355178E12	3.510869565217391	0.6304347826086957	10.967391304347826	3.0	0.23998223998224	4166.975023126734	0.23088455772113942	-0.1199400299850075	-0.5082458770614693	
1.6982425741550483E12	3.5760869565217392	0.6086956521739131	11.021739130434783	3.0	0.23953823953823958	4174.698795180722	0.21889055472263869	-0.1424287856071964	-0.5142428785607196	
1.6982425741745789E12	3.619565217391304	0.5869565217391304	11.054347826086957	3.0	0.23953823953823958	4174.698795180722	0.22338830584707645	-0.1409295352323838	-0.5112443778110944	
1.6982425741941094E12	3.532608695652174	0.6304347826086957	10.91304347826087	3.0	0.23998223998224	4166.975023126734	0.22638680659670163	-0.13043478260869565	-0.5187406296851574	
1.6982425742136396E12	3.543478260869565	0.6304347826086957	10.934782608695652	3.0	0.23953823953823958	4174.698795180722	0.22788605697151423	-0.12593703148425786	-0.5157421289355322	
1.6982425742331702E12	3.5217391304347827	0.6521739130434783	10.967391304347826	3.0	0.23998223998224	4166.975023126734	0.22488755622188905	-0.1199400299850075	-0.5232383808095952	
1.6982425742527007E12	3.5652173913043477	0.6195652173913043	11.0	3.0	0.23998223998224	4166.975023126734	0.22788605697151423	-0.1184407796101949	-0.5142428785607196	
1.6982425742722312E12	3.5978260869565215	0.6195652173913043	11.0	3.0	0.23953823953823958	4174.698795180722	0.22788605697151423	-0.12443778110944527	-0.5142428785607196	
1.6982425742917615E12	3.532608695652174	0.6304347826086957	10.956521739130434	3.0	0.23998223998224	4166.975023126734	0.22788605697151423	-0.12743628185907047	-0.5142428785607196	
1.698242574311292E12	3.532608695652174	0.6413043478260869	10.934782608695652	3.0	0.23998223998224	4166.975023126734	0.23088455772113942	-0.13493253373313344	-0.5082458770614693	
1.6982425743308225E12	3.5543478260869565	0.6521739130434783	11.032608695652174	3.0	0.23953823953823958	4174.698795180722	0.23238380809595202	-0.12893553223388304	-0.512743628185907	
1.6982425743503528E12	3.543478260869565	0.6304347826086957	11.0	3.0	0.23998223998224	4166.975023126734	0.22488755622188905	-0.12143928035982009	-0.512743628185907	
1.6982425743698833E12	3.5760869565217392	0.6195652173913043	10.956521739130434	3.0	0.23953823953823958	4174.698795180722	0.22638680659670163	-0.136431784107946	-0.5142428785607196	
1.6982425743894138E12	3.5760869565217392	0.6304347826086957	10.989130434782608	3.0	0.23998223998224	4166.975023126734	0.23238380809595202	-0.11244377811094453	-0.5142428785607196	
1.6982425744089443E12	3.5543478260869565	0.6304347826086957	11.0	3.0	0.23998223998224	4166.975023126734	0.22188905547226387	-0.13043478260869565	-0.5112443778110944	
1.6982425744284746E12	3.5543478260869565	0.5869565217391304	11.0	3.0	0.23998223998224	4166.975023126734	0.22638680659670163	-0.12293853073463268	-0.5322338830584707	
1.6982425744480051E12	3.543478260869565	0.6304347826086957	10.956521739130434	3.0	0.23953823953823958	4174.698795180722	0.23238380809595202	-0.12143928035982009	-0.5232383808095952	
1.6982425744675356E12	3.5217391304347827	0.6521739130434783	10.967391304347826	3.0	0.23953823953823958	4174.698795180722	0.22938530734632684	-0.13493253373313344	-0.512743628185907	
1.698242574487066E12	3.5760869565217392	0.6304347826086957	10.989130434782608	3.0	0.23998223998224	4166.975023126734	0.22938530734632684	-0.12743628185907047	-0.5157421289355322	
1.6982425745065964E12	3.619565217391304	0.6304347826086957	11.01086956521739	3.0	0.23998223998224	4166.975023126734	0.22488755622188905	-0.1454272863568216	-0.5187406296851574	
1.698242574526127E12	3.5652173913043477	0.6195652173913043	10.967391304347826	3.0	0.23953823953823958	4174.698795180722	0.22638680659670163	-0.11394302848575712	-0.512743628185907	
1.6982425745456575E12	3.543478260869565	0.6304347826086957	10.967391304347826	3.0	0.23998223998224	4166.975023126734	0.2383808095952024	-0.12593703148425786	-0.5262368815592203	
1.6982425745651877E12	3.5543478260869565	0.5978260869565217	10.967391304347826	3.0	0.23998223998224	4166.975023126734	0.22788605697151423	-0.13193403298350825	-0.512743628185907	
1.6982425745847183E12	3.5869565217391304	0.6521739130434783	10.978260869565217	3.0	0.23998223998224	4166.975023126734	0.22638680659670163	-0.12743628185907047	-0.5157421289355322	
1.6982425746042488E12	3.5760869565217392	0.6195652173913043	11.01086956521739	3.0	0.23998223998224	4166.975023126734	0.23238380809595202	-0.12743628185907047	-0.512743628185907	
1.6982425746237793E12	3.5869565217391304	0.6304347826086957	11.032608695652174	3.0	0.23953823953823958	4174.698795180722	0.23238380809595202	-0.1409295352323838	-0.5262368815592203	
1.6982425746433096E12	3.532608695652174	0.6195652173913043	10.989130434782608	3.0	0.23998223998224	4166.975023126734	0.2338830584707646	-0.1169415292353823	-0.5322338830584707	
1.69824257466284E12	3.5217391304347827	0.6521739130434783	10.956521739130434	3.0	0.23998223998224	4166.975023126734	0.22788605697151423	-0.12743628185907047	-0.5217391304347826	
1.6982425746823706E12	3.510869565217391	0.6195652173913043	11.01086956521739	3.0	0.23953823953823958	4174.698795180722	0.23088455772113942	-0.13193403298350825	-0.5082458770614693	
1.698242574701901E12	3.5652173913043477	0.6304347826086957	11.021739130434783	3.0	0.23953823953823958	4174.698795180722	0.22338830584707645	-0.12143928035982009	-0.52023988005997	
1.6982425747214314E12	3.619565217391304	0.6195652173913043	10.989130434782608	3.0	0.23953823953823958	4174.698795180722	0.22038980509745126	-0.12143928035982009	-0.5232383808095952	
1.698242574740962E12	3.8804347826086953	0.6086956521739131	11.0	3.0	0.23998223998224	4166.975023126734	0.22338830584707645	-0.13043478260869565	-0.5082458770614693	
1.6982425747604924E12	3.217391304347826	0.5652173913043478	10.967391304347826	3.0	0.23953823953823958	4174.698795180722	0.22788605697151423	-0.1394302848575712	-0.5247376311844077	
1.6982425747800227E12	3.652173913043478	0.6956521739130435	11.054347826086957	3.0	0.23953823953823958	4174.698795180722	0.22488755622188905	-0.12443778110944527	-0.5082458770614693	
1.6982425747995532E12	3.5978260869565215	0.6521739130434783	11.0	3.0	0.23953823953823958	4174.698795180722	0.22488755622188905	-0.1184407796101949	-0.512743628185907	
1.6982425748190837E12	3.6304347826086953	0.6521739130434783	10.956521739130434	3.0	0.23998223998224	4166.975023126734	0.22338830584707645	-0.1409295352323838	-0.5097451274362819	
1.698242574838614E12	3.5543478260869565	0.6304347826086957	10.967391304347826	3.0	0.23953823953823958	4174.698795180722	0.22038980509745126	-0.12743628185907047	-0.5157421289355322	
1.6982425748581445E12	3.5543478260869565	0.6086956521739131	10.956521739130434	3.0	0.23998223998224	4166.975023126734	0.23238380809595202	-0.13193403298350825	-0.5247376311844077	
1.698242574877675E12	3.5652173913043477	0.6304347826086957	10.989130434782608	3.0	0.23953823953823958	4174.698795180722	0.23088455772113942	-0.136431784107946	-0.5172413793103449	
1.6982425748972056E12	3.543478260869565	0.6304347826086957	10.956521739130434	3.0	0.23998223998224	4166.975023126734	0.21889055472263869	-0.12143928035982009	-0.5067466266866567	
1.6982425749167358E12	3.5869565217391304	0.6086956521739131	11.01086956521739	3.0	0.23953823953823958	4174.698795180722	0.22788605697151423	-0.13493253373313344	-0.5172413793103449	
1.6982425749362664E12	3.5543478260869565	0.6195652173913043	11.01086956521739	3.0	0.23953823953823958	4174.698795180722	0.23238380809595202	-0.12443778110944527	-0.505247376311844	
1.6982425749557969E12	3.5652173913043477	0.6413043478260869	10.978260869565217	3.0	0.23953823953823958	4174.698795180722	0.22788605697151423	-0.12743628185907047	-0.5172413793103449	
1.6982425749753274E12	3.5652173913043477	0.6195652173913043	10.978260869565217	3.0	0.23998223998224	4166.975023126734	0.22638680659670163	-0.12593703148425786	-0.5232383808095952	
1.6982425749948577E12	3.5652173913043477	0.6195652173913043	10.989130434782608	3.0	0.23909423909423907	4182.451253481894	0.22188905547226387	-0.13793103448275862	-0.5172413793103449	
1.6982425750143882E12	3.532608695652174	0.5869565217391304	11.021739130434783	3.0	0.23953823953823958	4174.698795180722	0.22488755622188905	-0.12743628185907047	-0.5187406296851574	
1.6982425750339187E12	3.5	0.6521739130434783	10.989130434782608	3.0	0.23953823953823958	4174.698795180722	0.22938530734632684	-0.13193403298350825	-0.5142428785607196	
1.698242575053449E12	3.543478260869565	0.6847826086956521	10.978260869565217	3.0	0.23953823953823958	4174.698795180722	0.22938530734632684	-0.12143928035982009	-0.5067466266866567	
1.6982425750729795E12	3.5869565217391304	0.6195652173913043	10.978260869565217	3.0	0.23953823953823958	4174.698795180722	0.22338830584707645	-0.13193403298350825	-0.512743628185907	
1.69824257509251E12	3.5760869565217392	0.6521739130434783	11.032608695652174	3.0	0.23953823953823958	4174.698795180722	0.22938530734632684	-0.1409295352323838	-0.5172413793103449	
1.6982425751120405E12	3.5543478260869565	0.6086956521739131	11.01086956521739	3.0	0.23953823953823958	4174.698795180722	0.22938530734632684	-0.12893553223388304	-0.5157421289355322	
1.6982425751315708E12	3.5543478260869565	0.5869565217391304	11.01086956521739	3.0	0.23953823953823958	4174.698795180722	0.23088455772113942	-0.12893553223388304	-0.5187406296851574	
1.6982425751511013E12	3.5760869565217392	0.6086956521739131	10.989130434782608	3.0	0.23953823953823958	4174.698795180722	0.22938530734632684	-0.12443778110944527	-0.5112443778110944	
1.6982425751706318E12	3.608695652173913	0.5869565217391304	11.01086956521739	3.0	0.23953823953823958	4174.698795180722	0.23088455772113942	-0.11394302848575712	-0.5172413793103449	
1.6982425751901624E12	3.5869565217391304	0.6304347826086957	10.989130434782608	3.0	0.23953823953823958	4174.698795180722	0.22188905547226387	-0.12443778110944527	-0.5157421289355322	
1.6982425752096926E12	3.543478260869565	0.6195652173913043	10.934782608695652	3.0	0.23953823953823958	4174.698795180722	0.22938530734632684	-0.1184407796101949	-0.5082458770614693	
1.6982425752292231E12	3.5543478260869565	0.6304347826086957	10.945652173913043	3.0	0.23998223998224	4166.975023126734	0.22638680659670163	-0.13343328335832083	-0.52023988005997	
1.6982425752487537E12	3.532608695652174	0.5543478260869565	10.967391304347826	3.0	0.23953823953823958	4174.698795180722	0.2338830584707646	-0.13493253373313344	-0.5082458770614693	
1.698242575268284E12	3.543478260869565	0.6195652173913043	11.01086956521739	3.0	0.23909423909423907	4182.451253481894	0.22488755622188905	-0.12593703148425786	-0.512743628185907	
1.6982425752878145E12	3.5217391304347827	0.6086956521739131	10.978260869565217	3.0	0.23953823953823958	4174.698795180722	0.22638680659670163	-0.13343328335832083	-0.5217391304347826	
1.698242575307345E12	3.5543478260869565	0.5869565217391304	10.967391304347826	3.0	0.23953823953823958	4174.698795180722	0.21739130434782608	-0.13043478260869565	-0.5142428785607196	
1.6982425753268755E12	3.5543478260869565	0.5869565217391304	10.956521739130434	3.0	0.23953823953823958	4174.698795180722	0.22788605697151423	-0.13493253373313344	-0.52023988005997	
1.6982425753464058E12	3.0978260869565215	0.44565217391304346	10.869565217391305	3.0	0.23953823953823958	4174.698795180722	0.22338830584707645	-0.13193403298350825	-0.5097451274362819	
1.6982425753659363E12	3.9782608695652173	0.5652173913043478	10.967391304347826	3.0	0.23953823953823958	4174.698795180722	0.22338830584707645	-0.1199400299850075	-0.5217391304347826	
1.6982425753854668E12	3.293478260869565	0.6086956521739131	10.989130434782608	3.0	0.23953823953823958	4174.698795180722	0.22938530734632684	-0.136431784107946	-0.5172413793103449	
1.698242575404997E12	3.6739130434782608	0.6739130434782609	11.065217391304348	3.0	0.23953823953823958	4174.698795180722	0.22638680659670163	-0.136431784107946	-0.5262368815592203	
1.6982425754245276E12	3.4782608695652173	0.5434782608695652	10.978260869565217	3.0	0.23953823953823958	4174.698795180722	0.22788605697151423	-0.12893553223388304	-0.5112443778110944	
1.698242575444058E12	3.7065217391304346	0.6521739130434783	11.043478260869565	3.0	0.23953823953823958	4174.698795180722	0.22038980509745126	-0.12893553223388304	-0.512743628185907	
1.6982425754635886E12	3.532608695652174	0.6304347826086957	10.978260869565217	3.0	0.23909423909423907	4182.451253481894	0.22488755622188905	-0.1409295352323838	-0.5247376311844077	
1.698242575483119E12	3.5760869565217392	0.6413043478260869	10.934782608695652	3.0	0.23953823953823958	4174.698795180722	0.22488755622188905	-0.12893553223388304	-0.5217391304347826	
1.6982425755026494E12	3.543478260869565	0.6413043478260869	10.934782608695652	3.0	0.23909423909423907	4182.451253481894	0.22188905547226387	-0.1409295352323838	-0.52023988005997	
1.69824257552218E12	3.543478260869565	0.5978260869565217	10.978260869565217	3.0	0.23953823953823958	4174.698795180722	0.2338830584707646	-0.13043478260869565	-0.5142428785607196	
1.6982425755417104E12	3.5543478260869565	0.5543478260869565	11.0	3.0	0.23953823953823958	4174.698795180722	0.22188905547226387	-0.13043478260869565	-0.5082458770614693	
1.6982425755612407E12	3.5543478260869565	0.5869565217391304	11.01086956521739	3.0	0.23909423909423907	4182.451253481894	0.23088455772113942	-0.12443778110944527	-0.512743628185907	
1.6982425755807712E12	3.5760869565217392	0.5869565217391304	10.978260869565217	3.0	0.23953823953823958	4174.698795180722	0.22638680659670163	-0.1184407796101949	-0.5172413793103449	
