"sep=	"
Shimmer_D349_TimestampSync_Unix_CAL	Shimmer_D349_Accel_LN_X_CAL	Shimmer_D349_Accel_LN_Y_CAL	Shimmer_D349_Accel_LN_Z_CAL	Shimmer_D349_GSR_Range_CAL	Shimmer_D349_GSR_Skin_Conductance_CAL	Shimmer_D349_GSR_Skin_Resistance_CAL	Shimmer_D349_Mag_X_CAL	Shimmer_D349_Mag_Y_CAL	Shimmer_D349_Mag_Z_CAL	
ms	m/(s^2)	m/(s^2)	m/(s^2)	no_units	uS	kOhms	local_flux	local_flux	local_flux	
1.6982415370343608E12	5.717391304347826	-0.13043478260869565	10.130434782608695	3.0	0.4189144189144189	2387.1224165341814	0.10494752623688156	-0.15442278860569714	-0.5787106446776612	
1.6982415370538914E12	5.684782608695652	-0.14130434782608695	10.184782608695652	3.0	0.4184704184704185	2389.655172413793	0.10044977511244378	-0.15442278860569714	-0.5787106446776612	
1.6982415370734219E12	5.728260869565217	-0.09782608695652173	10.184782608695652	3.0	0.4184704184704185	2389.655172413793	0.09295352323838081	-0.15892053973013492	-0.5727136431784108	
1.6982415370929526E12	5.728260869565217	-0.11956521739130435	10.184782608695652	3.0	0.4184704184704185	2389.655172413793	0.10344827586206896	-0.14392803598200898	-0.5577211394302848	
1.6982415371124832E12	5.75	-0.10869565217391304	10.195652173913043	3.0	0.4184704184704185	2389.655172413793	0.10644677661169415	-0.15892053973013492	-0.5772113943028485	
1.6982415371320137E12	5.739130434782608	-0.09782608695652173	10.16304347826087	3.0	0.4184704184704185	2389.655172413793	0.0944527736131934	-0.14842578710644677	-0.5697151424287856	
1.6982415371515442E12	5.782608695652174	-0.09782608695652173	10.141304347826086	3.0	0.4184704184704185	2389.655172413793	0.10344827586206896	-0.14692653673163417	-0.5802098950524738	
1.698241537171075E12	5.728260869565217	-0.10869565217391304	10.141304347826086	3.0	0.4189144189144189	2387.1224165341814	0.09895052473763118	-0.14992503748125938	-0.5802098950524738	
1.6982415371906055E12	5.771739130434782	-0.13043478260869565	10.141304347826086	3.0	0.4189144189144189	2387.1224165341814	0.10944527736131934	-0.14992503748125938	-0.5772113943028485	
1.698241537210136E12	5.695652173913043	-0.11956521739130435	10.119565217391305	3.0	0.4189144189144189	2387.1224165341814	0.10194902548725637	-0.15592203898050974	-0.5757121439280359	
1.6982415372296665E12	5.728260869565217	-0.15217391304347827	10.119565217391305	3.0	0.4184704184704185	2389.655172413793	0.10944527736131934	-0.15892053973013492	-0.5742128935532234	
1.6982415372491973E12	5.760869565217392	-0.15217391304347827	10.141304347826086	3.0	0.4189144189144189	2387.1224165341814	0.10044977511244378	-0.13793103448275862	-0.5787106446776612	
1.6982415372687278E12	5.760869565217392	-0.17391304347826086	10.119565217391305	3.0	0.4189144189144189	2387.1224165341814	0.11244377811094453	-0.14392803598200898	-0.5742128935532234	
1.6982415372882583E12	5.739130434782608	-0.14130434782608695	10.152173913043478	3.0	0.4184704184704185	2389.655172413793	0.10644677661169415	-0.1424287856071964	-0.5757121439280359	
1.6982415373077888E12	5.739130434782608	-0.14130434782608695	10.130434782608695	3.0	0.4184704184704185	2389.655172413793	0.10644677661169415	-0.15592203898050974	-0.5697151424287856	
1.6982415373273196E12	5.728260869565217	-0.10869565217391304	10.17391304347826	3.0	0.4184704184704185	2389.655172413793	0.08845577211394302	-0.15142428785607195	-0.5697151424287856	
1.69824153734685E12	5.728260869565217	-0.09782608695652173	10.184782608695652	3.0	0.4184704184704185	2389.655172413793	0.095952023988006	-0.14992503748125938	-0.5742128935532234	
1.6982415373663806E12	5.75	-0.07608695652173914	10.130434782608695	3.0	0.4184704184704185	2389.655172413793	0.10494752623688156	-0.15442278860569714	-0.5652173913043478	
1.6982415373859111E12	5.815217391304348	-0.09782608695652173	10.17391304347826	3.0	0.4184704184704185	2389.655172413793	0.0914542728635682	-0.15592203898050974	-0.5772113943028485	
1.698241537405442E12	5.793478260869565	-0.09782608695652173	10.130434782608695	3.0	0.4184704184704185	2389.655172413793	0.10494752623688156	-0.1424287856071964	-0.5742128935532234	
1.6982415374249724E12	5.717391304347826	-0.11956521739130435	10.152173913043478	3.0	0.4189144189144189	2387.1224165341814	0.10194902548725637	-0.1424287856071964	-0.5742128935532234	
1.698241537444503E12	5.815217391304348	-0.10869565217391304	10.130434782608695	3.0	0.4184704184704185	2389.655172413793	0.10644677661169415	-0.15442278860569714	-0.5757121439280359	
1.6982415374640334E12	5.782608695652174	-0.14130434782608695	10.152173913043478	3.0	0.4184704184704185	2389.655172413793	0.10044977511244378	-0.15892053973013492	-0.5742128935532234	
1.6982415374835642E12	5.771739130434782	-0.09782608695652173	10.17391304347826	3.0	0.4184704184704185	2389.655172413793	0.09895052473763118	-0.1424287856071964	-0.5772113943028485	
1.6982415375030947E12	5.739130434782608	-0.13043478260869565	10.119565217391305	3.0	0.4184704184704185	2389.655172413793	0.10044977511244378	-0.14992503748125938	-0.5697151424287856	
1.6982415375226252E12	5.75	-0.14130434782608695	10.17391304347826	3.0	0.418026418026418	2392.193308550186	0.095952023988006	-0.1649175412293853	-0.5757121439280359	
1.6982415375421558E12	5.75	-0.14130434782608695	10.130434782608695	3.0	0.4184704184704185	2389.655172413793	0.10044977511244378	-0.15442278860569714	-0.5772113943028485	
1.6982415375616865E12	5.782608695652174	-0.13043478260869565	10.16304347826087	3.0	0.4184704184704185	2389.655172413793	0.10494752623688156	-0.15142428785607195	-0.5727136431784108	
1.698241537581217E12	5.717391304347826	-0.14130434782608695	10.16304347826087	3.0	0.4189144189144189	2387.1224165341814	0.095952023988006	-0.1454272863568216	-0.5787106446776612	
1.6982415376007476E12	5.739130434782608	-0.10869565217391304	10.152173913043478	3.0	0.418026418026418	2392.193308550186	0.10494752623688156	-0.14692653673163417	-0.5727136431784108	
1.698241537620278E12	5.728260869565217	-0.10869565217391304	10.108695652173912	3.0	0.418026418026418	2392.193308550186	0.10194902548725637	-0.15142428785607195	-0.5862068965517241	
1.6982415376398088E12	5.793478260869565	-0.09782608695652173	10.17391304347826	3.0	0.418026418026418	2392.193308550186	0.10194902548725637	-0.1454272863568216	-0.5832083958020989	
1.6982415376593394E12	5.782608695652174	-0.13043478260869565	10.119565217391305	3.0	0.4184704184704185	2389.655172413793	0.10044977511244378	-0.1409295352323838	-0.5667166416791604	
1.6982415376788699E12	5.760869565217392	-0.14130434782608695	10.130434782608695	3.0	0.418026418026418	2392.193308550186	0.10644677661169415	-0.14992503748125938	-0.5697151424287856	
1.6982415376984004E12	5.771739130434782	-0.14130434782608695	10.152173913043478	3.0	0.418026418026418	2392.193308550186	0.10044977511244378	-0.1424287856071964	-0.5817091454272864	
1.6982415377179312E12	5.804347826086956	-0.11956521739130435	10.119565217391305	3.0	0.4184704184704185	2389.655172413793	0.09745127436281859	-0.15142428785607195	-0.5757121439280359	
1.6982415377374617E12	5.793478260869565	-0.11956521739130435	10.119565217391305	3.0	0.4184704184704185	2389.655172413793	0.10044977511244378	-0.15292353823088456	-0.5817091454272864	
1.6982415377569922E12	5.782608695652174	-0.10869565217391304	10.108695652173912	3.0	0.418026418026418	2392.193308550186	0.09745127436281859	-0.15142428785607195	-0.5802098950524738	
1.698241537776523E12	5.760869565217392	-0.09782608695652173	10.141304347826086	3.0	0.41758241758241754	2394.7368421052633	0.10194902548725637	-0.16041979010494753	-0.5697151424287856	
1.6982415377960535E12	5.815217391304348	-0.11956521739130435	10.152173913043478	3.0	0.418026418026418	2392.193308550186	0.10944527736131934	-0.16041979010494753	-0.5712143928035982	
1.698241537815584E12	5.771739130434782	-0.11956521739130435	10.130434782608695	3.0	0.418026418026418	2392.193308550186	0.0944527736131934	-0.15142428785607195	-0.5727136431784108	
1.6982415378351145E12	5.739130434782608	-0.10869565217391304	10.108695652173912	3.0	0.418026418026418	2392.193308550186	0.09895052473763118	-0.1424287856071964	-0.5757121439280359	
1.6982415378546453E12	5.826086956521739	-0.10869565217391304	10.108695652173912	3.0	0.418026418026418	2392.193308550186	0.095952023988006	-0.15742128935532235	-0.568215892053973	
1.6982415378741758E12	5.793478260869565	-0.11956521739130435	10.119565217391305	3.0	0.418026418026418	2392.193308550186	0.0944527736131934	-0.1409295352323838	-0.5817091454272864	
1.6982415378937063E12	5.826086956521739	-0.11956521739130435	10.152173913043478	3.0	0.41758241758241754	2394.7368421052633	0.10194902548725637	-0.17091454272863568	-0.5787106446776612	
1.6982415379132368E12	5.804347826086956	-0.10869565217391304	10.119565217391305	3.0	0.418026418026418	2392.193308550186	0.10044977511244378	-0.14692653673163417	-0.5727136431784108	
1.6982415379327676E12	5.826086956521739	-0.10869565217391304	10.119565217391305	3.0	0.41758241758241754	2394.7368421052633	0.08995502248875561	-0.15742128935532235	-0.5802098950524738	
1.698241537952298E12	5.815217391304348	-0.09782608695652173	10.119565217391305	3.0	0.418026418026418	2392.193308550186	0.09745127436281859	-0.15442278860569714	-0.5697151424287856	
1.6982415379718286E12	5.815217391304348	-0.11956521739130435	10.119565217391305	3.0	0.418026418026418	2392.193308550186	0.09745127436281859	-0.1394302848575712	-0.5712143928035982	
1.6982415379913591E12	5.826086956521739	-0.11956521739130435	10.08695652173913	3.0	0.418026418026418	2392.193308550186	0.09895052473763118	-0.1409295352323838	-0.5772113943028485	
1.69824153801089E12	5.804347826086956	-0.14130434782608695	10.097826086956522	3.0	0.418026418026418	2392.193308550186	0.10344827586206896	-0.1454272863568216	-0.5712143928035982	
1.6982415380304204E12	5.8478260869565215	-0.14130434782608695	10.130434782608695	3.0	0.41758241758241754	2394.7368421052633	0.09895052473763118	-0.13793103448275862	-0.568215892053973	
1.698241538049951E12	5.739130434782608	-0.14130434782608695	10.152173913043478	3.0	0.418026418026418	2392.193308550186	0.09895052473763118	-0.14992503748125938	-0.5832083958020989	
1.6982415380694814E12	5.826086956521739	-0.16304347826086957	10.108695652173912	3.0	0.41758241758241754	2394.7368421052633	0.10194902548725637	-0.14842578710644677	-0.5772113943028485	
1.6982415380890122E12	5.782608695652174	-0.15217391304347827	10.119565217391305	3.0	0.4171384171384171	2397.285790313997	0.10644677661169415	-0.15742128935532235	-0.5787106446776612	
1.6982415381085427E12	5.771739130434782	-0.14130434782608695	10.130434782608695	3.0	0.41758241758241754	2394.7368421052633	0.10494752623688156	-0.15442278860569714	-0.5742128935532234	
1.6982415381280732E12	5.782608695652174	-0.13043478260869565	10.119565217391305	3.0	0.41758241758241754	2394.7368421052633	0.095952023988006	-0.14692653673163417	-0.5772113943028485	
1.6982415381476038E12	5.760869565217392	-0.13043478260869565	10.16304347826087	3.0	0.418026418026418	2392.193308550186	0.10644677661169415	-0.15292353823088456	-0.5757121439280359	
1.6982415381671345E12	5.83695652173913	-0.08695652173913043	10.130434782608695	3.0	0.41758241758241754	2394.7368421052633	0.10044977511244378	-0.1454272863568216	-0.5787106446776612	
1.698241538186665E12	5.83695652173913	-0.09782608695652173	10.119565217391305	3.0	0.41758241758241754	2394.7368421052633	0.0914542728635682	-0.15442278860569714	-0.5817091454272864	
1.6982415382061956E12	5.869565217391304	-0.10869565217391304	10.152173913043478	3.0	0.4171384171384171	2397.285790313997	0.09895052473763118	-0.1394302848575712	-0.5697151424287856	
1.698241538225726E12	5.782608695652174	-0.15217391304347827	10.130434782608695	3.0	0.4171384171384171	2397.285790313997	0.09745127436281859	-0.15592203898050974	-0.5772113943028485	
1.6982415382452568E12	5.771739130434782	-0.13043478260869565	10.08695652173913	3.0	0.4171384171384171	2397.285790313997	0.09895052473763118	-0.15292353823088456	-0.5802098950524738	
1.6982415382647874E12	5.815217391304348	-0.14130434782608695	10.119565217391305	3.0	0.4171384171384171	2397.285790313997	0.10194902548725637	-0.14692653673163417	-0.5667166416791604	
1.6982415382843179E12	5.804347826086956	-0.14130434782608695	10.152173913043478	3.0	0.4171384171384171	2397.285790313997	0.08695652173913043	-0.15292353823088456	-0.568215892053973	
1.6982415383038484E12	5.826086956521739	-0.14130434782608695	10.141304347826086	3.0	0.4166944166944167	2399.840170484816	0.09295352323838081	-0.14692653673163417	-0.5697151424287856	
1.6982415383233792E12	5.793478260869565	-0.15217391304347827	10.119565217391305	3.0	0.4171384171384171	2397.285790313997	0.0944527736131934	-0.15892053973013492	-0.5817091454272864	
1.6982415383429097E12	5.83695652173913	-0.17391304347826086	10.097826086956522	3.0	0.4166944166944167	2399.840170484816	0.09745127436281859	-0.1454272863568216	-0.5862068965517241	
1.6982415383624402E12	5.804347826086956	-0.15217391304347827	10.08695652173913	3.0	0.4166944166944167	2399.840170484816	0.10494752623688156	-0.1394302848575712	-0.5727136431784108	
1.6982415383819707E12	5.804347826086956	-0.15217391304347827	10.119565217391305	3.0	0.4171384171384171	2397.285790313997	0.08995502248875561	-0.15442278860569714	-0.5787106446776612	
1.6982415384015015E12	5.815217391304348	-0.15217391304347827	10.130434782608695	3.0	0.41625041625041626	2402.4	0.10644677661169415	-0.136431784107946	-0.5772113943028485	
1.698241538421032E12	5.75	-0.15217391304347827	10.119565217391305	3.0	0.41625041625041626	2402.4	0.09295352323838081	-0.15292353823088456	-0.5727136431784108	
1.6982415384405625E12	5.880434782608695	-0.14130434782608695	10.16304347826087	3.0	0.4166944166944167	2399.840170484816	0.0914542728635682	-0.14842578710644677	-0.5727136431784108	
1.698241538460093E12	5.760869565217392	-0.13043478260869565	10.108695652173912	3.0	0.4166944166944167	2399.840170484816	0.10344827586206896	-0.15442278860569714	-0.568215892053973	
1.6982415384796238E12	5.739130434782608	-0.14130434782608695	10.141304347826086	3.0	0.4166944166944167	2399.840170484816	0.10344827586206896	-0.1409295352323838	-0.5742128935532234	
1.6982415384991543E12	5.815217391304348	-0.15217391304347827	10.108695652173912	3.0	0.41625041625041626	2402.4	0.09895052473763118	-0.1394302848575712	-0.5697151424287856	
1.6982415385186848E12	5.869565217391304	-0.14130434782608695	10.130434782608695	3.0	0.4166944166944167	2399.840170484816	0.0914542728635682	-0.15292353823088456	-0.5742128935532234	
1.6982415385382153E12	5.83695652173913	-0.14130434782608695	10.097826086956522	3.0	0.41625041625041626	2402.4	0.10194902548725637	-0.1634182908545727	-0.5712143928035982	
1.698241538557746E12	5.815217391304348	-0.14130434782608695	10.119565217391305	3.0	0.4158064158064158	2404.9652963160706	0.09745127436281859	-0.1424287856071964	-0.5712143928035982	
1.6982415385772766E12	5.804347826086956	-0.14130434782608695	10.08695652173913	3.0	0.41625041625041626	2402.4	0.10044977511244378	-0.14992503748125938	-0.5742128935532234	
1.6982415385968071E12	5.793478260869565	-0.15217391304347827	10.130434782608695	3.0	0.4166944166944167	2399.840170484816	0.08995502248875561	-0.13493253373313344	-0.5742128935532234	
1.6982415386163376E12	5.858695652173913	-0.15217391304347827	10.08695652173913	3.0	0.4158064158064158	2404.9652963160706	0.09745127436281859	-0.1424287856071964	-0.5697151424287856	
1.6982415386358684E12	5.83695652173913	-0.16304347826086957	10.141304347826086	3.0	0.4158064158064158	2404.9652963160706	0.0914542728635682	-0.15442278860569714	-0.568215892053973	
1.698241538655399E12	5.83695652173913	-0.11956521739130435	10.119565217391305	3.0	0.41625041625041626	2402.4	0.09895052473763118	-0.14692653673163417	-0.5772113943028485	
1.6982415386749294E12	5.793478260869565	-0.15217391304347827	10.130434782608695	3.0	0.4158064158064158	2404.9652963160706	0.09745127436281859	-0.14992503748125938	-0.5787106446776612	
1.69824153869446E12	5.760869565217392	-0.16304347826086957	10.119565217391305	3.0	0.4158064158064158	2404.9652963160706	0.0944527736131934	-0.15592203898050974	-0.5817091454272864	
1.6982415387139907E12	5.815217391304348	-0.15217391304347827	10.141304347826086	3.0	0.4158064158064158	2404.9652963160706	0.09895052473763118	-0.15742128935532235	-0.5772113943028485	
1.6982415387335212E12	5.804347826086956	-0.11956521739130435	10.130434782608695	3.0	0.41625041625041626	2402.4	0.10494752623688156	-0.1424287856071964	-0.5847076461769115	
1.6982415387530518E12	5.8478260869565215	-0.13043478260869565	10.076086956521738	3.0	0.41625041625041626	2402.4	0.095952023988006	-0.14842578710644677	-0.5712143928035982	
1.6982415387725823E12	5.8478260869565215	-0.15217391304347827	10.076086956521738	3.0	0.4158064158064158	2404.9652963160706	0.10044977511244378	-0.15592203898050974	-0.5787106446776612	
1.698241538792113E12	5.8478260869565215	-0.15217391304347827	10.065217391304348	3.0	0.41536241536241536	2407.53607696419	0.09295352323838081	-0.15292353823088456	-0.568215892053973	
1.6982415388116436E12	5.8478260869565215	-0.15217391304347827	10.097826086956522	3.0	0.4158064158064158	2404.9652963160706	0.10344827586206896	-0.14692653673163417	-0.5742128935532234	
1.698241538831174E12	5.880434782608695	-0.15217391304347827	10.097826086956522	3.0	0.41536241536241536	2407.53607696419	0.10194902548725637	-0.14842578710644677	-0.568215892053973	
1.6982415388507046E12	5.858695652173913	-0.14130434782608695	10.076086956521738	3.0	0.41536241536241536	2407.53607696419	0.08995502248875561	-0.13493253373313344	-0.5832083958020989	
1.6982415388702354E12	5.8478260869565215	-0.15217391304347827	10.097826086956522	3.0	0.41536241536241536	2407.53607696419	0.09295352323838081	-0.15292353823088456	-0.5727136431784108	
1.6982415388897659E12	5.8478260869565215	-0.14130434782608695	10.08695652173913	3.0	0.41536241536241536	2407.53607696419	0.09895052473763118	-0.15892053973013492	-0.5772113943028485	
1.6982415389092964E12	5.83695652173913	-0.11956521739130435	10.065217391304348	3.0	0.41536241536241536	2407.53607696419	0.08995502248875561	-0.15592203898050974	-0.5832083958020989	
1.698241538928827E12	5.858695652173913	-0.14130434782608695	10.065217391304348	3.0	0.41536241536241536	2407.53607696419	0.08845577211394302	-0.15292353823088456	-0.5742128935532234	
1.6982415389483577E12	5.869565217391304	-0.13043478260869565	10.065217391304348	3.0	0.4149184149184149	2410.112359550562	0.09745127436281859	-0.14842578710644677	-0.5727136431784108	
1.6982415389678882E12	5.858695652173913	-0.11956521739130435	10.108695652173912	3.0	0.4149184149184149	2410.112359550562	0.10194902548725637	-0.1619190404797601	-0.5697151424287856	
1.6982415389874187E12	5.8478260869565215	-0.08695652173913043	10.08695652173913	3.0	0.4149184149184149	2410.112359550562	0.09745127436281859	-0.14842578710644677	-0.5742128935532234	
1.6982415390069492E12	5.880434782608695	-0.11956521739130435	10.119565217391305	3.0	0.41536241536241536	2407.53607696419	0.0944527736131934	-0.15142428785607195	-0.568215892053973	
1.69824153902648E12	5.891304347826087	-0.10869565217391304	10.08695652173913	3.0	0.4149184149184149	2410.112359550562	0.09895052473763118	-0.15742128935532235	-0.5802098950524738	
1.6982415390460105E12	5.83695652173913	-0.14130434782608695	10.097826086956522	3.0	0.41536241536241536	2407.53607696419	0.08995502248875561	-0.15592203898050974	-0.5712143928035982	
1.698241539065541E12	5.858695652173913	-0.15217391304347827	10.097826086956522	3.0	0.4149184149184149	2410.112359550562	0.0944527736131934	-0.14692653673163417	-0.5817091454272864	
1.6982415390850715E12	5.8478260869565215	-0.11956521739130435	10.119565217391305	3.0	0.4149184149184149	2410.112359550562	0.10344827586206896	-0.15292353823088456	-0.5727136431784108	
1.6982415391046023E12	5.83695652173913	-0.13043478260869565	10.097826086956522	3.0	0.4144744144744145	2412.694161756829	0.0944527736131934	-0.13793103448275862	-0.5697151424287856	
1.6982415391241328E12	5.869565217391304	-0.09782608695652173	10.141304347826086	3.0	0.4144744144744145	2412.694161756829	0.0914542728635682	-0.1454272863568216	-0.568215892053973	
1.6982415391436633E12	5.858695652173913	-0.13043478260869565	10.065217391304348	3.0	0.4149184149184149	2410.112359550562	0.07496251874062969	-0.15742128935532235	-0.5697151424287856	
1.6982415391631938E12	5.83695652173913	-0.10869565217391304	10.076086956521738	3.0	0.4149184149184149	2410.112359550562	0.08845577211394302	-0.16041979010494753	-0.5757121439280359	
1.6982415391827246E12	5.869565217391304	-0.10869565217391304	10.08695652173913	3.0	0.4144744144744145	2412.694161756829	0.10344827586206896	-0.14692653673163417	-0.5667166416791604	
1.6982415392022551E12	5.913043478260869	-0.10869565217391304	10.076086956521738	3.0	0.4149184149184149	2410.112359550562	0.08395802098950525	-0.14692653673163417	-0.5772113943028485	
1.6982415392217856E12	5.8478260869565215	-0.08695652173913043	10.108695652173912	3.0	0.4144744144744145	2412.694161756829	0.09745127436281859	-0.15892053973013492	-0.5697151424287856	
1.6982415392413162E12	5.83695652173913	-0.11956521739130435	10.08695652173913	3.0	0.4149184149184149	2410.112359550562	0.095952023988006	-0.14392803598200898	-0.5817091454272864	
1.698241539260847E12	5.891304347826087	-0.11956521739130435	10.076086956521738	3.0	0.4144744144744145	2412.694161756829	0.09895052473763118	-0.1454272863568216	-0.5697151424287856	
1.6982415392803774E12	5.934782608695652	-0.10869565217391304	10.076086956521738	3.0	0.4144744144744145	2412.694161756829	0.09895052473763118	-0.15592203898050974	-0.568215892053973	
1.698241539299908E12	5.891304347826087	-0.09782608695652173	10.076086956521738	3.0	0.4144744144744145	2412.694161756829	0.0944527736131934	-0.15742128935532235	-0.5727136431784108	
1.6982415393194385E12	5.869565217391304	-0.09782608695652173	10.097826086956522	3.0	0.4149184149184149	2410.112359550562	0.0944527736131934	-0.14992503748125938	-0.5667166416791604	
1.6982415393389692E12	5.913043478260869	-0.11956521739130435	10.108695652173912	3.0	0.414030414030414	2415.2815013404825	0.095952023988006	-0.1409295352323838	-0.5652173913043478	
1.6982415393584998E12	5.891304347826087	-0.09782608695652173	10.108695652173912	3.0	0.414030414030414	2415.2815013404825	0.08695652173913043	-0.1619190404797601	-0.5697151424287856	
1.6982415393780303E12	5.891304347826087	-0.10869565217391304	10.108695652173912	3.0	0.4144744144744145	2412.694161756829	0.09895052473763118	-0.1454272863568216	-0.568215892053973	
1.6982415393975608E12	5.869565217391304	-0.11956521739130435	10.08695652173913	3.0	0.4144744144744145	2412.694161756829	0.08845577211394302	-0.1454272863568216	-0.5697151424287856	
1.6982415394170916E12	5.869565217391304	-0.13043478260869565	10.08695652173913	3.0	0.414030414030414	2415.2815013404825	0.09745127436281859	-0.16941529235382308	-0.5727136431784108	
1.698241539436622E12	5.891304347826087	-0.10869565217391304	10.119565217391305	3.0	0.414030414030414	2415.2815013404825	0.0914542728635682	-0.14842578710644677	-0.5742128935532234	
1.6982415394561526E12	5.880434782608695	-0.09782608695652173	10.065217391304348	3.0	0.4144744144744145	2412.694161756829	0.08995502248875561	-0.15742128935532235	-0.5787106446776612	
1.698241539475683E12	5.880434782608695	-0.10869565217391304	10.076086956521738	3.0	0.414030414030414	2415.2815013404825	0.08995502248875561	-0.14992503748125938	-0.568215892053973	
1.6982415394952139E12	5.9021739130434785	-0.09782608695652173	10.054347826086957	3.0	0.414030414030414	2415.2815013404825	0.09295352323838081	-0.15292353823088456	-0.5847076461769115	
1.6982415395147444E12	5.9021739130434785	-0.10869565217391304	10.054347826086957	3.0	0.414030414030414	2415.2815013404825	0.0914542728635682	-0.14992503748125938	-0.5712143928035982	
1.698241539534275E12	5.913043478260869	-0.08695652173913043	10.054347826086957	3.0	0.414030414030414	2415.2815013404825	0.0914542728635682	-0.1394302848575712	-0.5802098950524738	
1.6982415395538054E12	5.945652173913043	-0.043478260869565216	10.076086956521738	3.0	0.414030414030414	2415.2815013404825	0.0944527736131934	-0.16041979010494753	-0.5712143928035982	
1.6982415395733362E12	5.913043478260869	-0.08695652173913043	10.076086956521738	3.0	0.4135864135864136	2417.8743961352657	0.08845577211394302	-0.15142428785607195	-0.5742128935532234	
1.6982415395928667E12	5.923913043478261	-0.08695652173913043	10.065217391304348	3.0	0.4135864135864136	2417.8743961352657	0.08995502248875561	-0.15742128935532235	-0.5757121439280359	
1.6982415396123972E12	5.913043478260869	-0.08695652173913043	10.130434782608695	3.0	0.4135864135864136	2417.8743961352657	0.08995502248875561	-0.1424287856071964	-0.5757121439280359	
1.698241539631928E12	5.913043478260869	-0.07608695652173914	10.076086956521738	3.0	0.4135864135864136	2417.8743961352657	0.08395802098950525	-0.1424287856071964	-0.5757121439280359	
1.6982415396514585E12	5.891304347826087	-0.10869565217391304	10.065217391304348	3.0	0.4135864135864136	2417.8743961352657	0.08995502248875561	-0.14992503748125938	-0.5787106446776612	
1.698241539670989E12	5.880434782608695	-0.10869565217391304	10.141304347826086	3.0	0.4135864135864136	2417.8743961352657	0.09895052473763118	-0.1409295352323838	-0.5802098950524738	
1.6982415396905195E12	5.858695652173913	-0.10869565217391304	10.065217391304348	3.0	0.4135864135864136	2417.8743961352657	0.09895052473763118	-0.14692653673163417	-0.5757121439280359	
1.6982415397100503E12	5.869565217391304	-0.10869565217391304	10.043478260869565	3.0	0.4135864135864136	2417.8743961352657	0.08995502248875561	-0.15442278860569714	-0.5787106446776612	
1.6982415397295808E12	5.923913043478261	-0.09782608695652173	10.076086956521738	3.0	0.4135864135864136	2417.8743961352657	0.08995502248875561	-0.1409295352323838	-0.5742128935532234	
1.6982415397491113E12	5.913043478260869	-0.06521739130434782	10.097826086956522	3.0	0.4135864135864136	2417.8743961352657	0.09295352323838081	-0.1424287856071964	-0.5712143928035982	
1.6982415397686418E12	5.923913043478261	-0.06521739130434782	10.108695652173912	3.0	0.4135864135864136	2417.8743961352657	0.095952023988006	-0.1454272863568216	-0.56071964017991	
1.6982415397881726E12	5.9021739130434785	-0.043478260869565216	10.097826086956522	3.0	0.4135864135864136	2417.8743961352657	0.10044977511244378	-0.15742128935532235	-0.5712143928035982	
1.6982415398077031E12	5.945652173913043	-0.05434782608695652	10.097826086956522	3.0	0.4135864135864136	2417.8743961352657	0.09895052473763118	-0.15292353823088456	-0.5712143928035982	
1.6982415398272336E12	5.923913043478261	-0.07608695652173914	10.043478260869565	3.0	0.4131424131424132	2420.472864051585	0.0914542728635682	-0.14392803598200898	-0.5712143928035982	
1.6982415398467642E12	5.9021739130434785	-0.06521739130434782	10.119565217391305	3.0	0.4131424131424132	2420.472864051585	0.0944527736131934	-0.15442278860569714	-0.5727136431784108	
1.698241539866295E12	5.891304347826087	-0.09782608695652173	10.065217391304348	3.0	0.4135864135864136	2417.8743961352657	0.08845577211394302	-0.14842578710644677	-0.5802098950524738	
1.6982415398858254E12	5.869565217391304	-0.11956521739130435	10.043478260869565	3.0	0.4131424131424132	2420.472864051585	0.08695652173913043	-0.15292353823088456	-0.5637181409295352	
1.698241539905356E12	5.891304347826087	-0.11956521739130435	10.054347826086957	3.0	0.41269841269841273	2423.076923076923	0.09295352323838081	-0.16041979010494753	-0.568215892053973	
1.6982415399248865E12	5.978260869565217	-0.09782608695652173	10.119565217391305	3.0	0.4131424131424132	2420.472864051585	0.08995502248875561	-0.1679160419790105	-0.5667166416791604	
1.6982415399444172E12	5.913043478260869	-0.07608695652173914	10.108695652173912	3.0	0.4131424131424132	2420.472864051585	0.0914542728635682	-0.16041979010494753	-0.5742128935532234	
1.6982415399639478E12	5.9021739130434785	-0.06521739130434782	10.054347826086957	3.0	0.4131424131424132	2420.472864051585	0.08995502248875561	-0.14392803598200898	-0.5667166416791604	
1.6982415399834783E12	5.989130434782608	-0.05434782608695652	10.065217391304348	3.0	0.41269841269841273	2423.076923076923	0.08995502248875561	-0.15892053973013492	-0.5772113943028485	
1.6982415400030088E12	5.934782608695652	-0.05434782608695652	10.032608695652174	3.0	0.4131424131424132	2420.472864051585	0.09295352323838081	-0.14842578710644677	-0.5787106446776612	
1.6982415400225396E12	5.934782608695652	-0.08695652173913043	10.032608695652174	3.0	0.4131424131424132	2420.472864051585	0.08695652173913043	-0.15742128935532235	-0.5802098950524738	
1.69824154004207E12	5.956521739130435	-0.07608695652173914	10.043478260869565	3.0	0.41269841269841273	2423.076923076923	0.0944527736131934	-0.136431784107946	-0.5772113943028485	
1.6982415400616006E12	5.934782608695652	-0.06521739130434782	10.043478260869565	3.0	0.4122544122544123	2425.686591276252	0.07946026986506746	-0.13493253373313344	-0.5787106446776612	
1.698241540081131E12	5.978260869565217	-0.07608695652173914	10.065217391304348	3.0	0.41269841269841273	2423.076923076923	0.095952023988006	-0.1454272863568216	-0.5742128935532234	
1.6982415401006619E12	5.956521739130435	-0.06521739130434782	10.076086956521738	3.0	0.4131424131424132	2420.472864051585	0.09895052473763118	-0.16041979010494753	-0.5697151424287856	
1.6982415401201924E12	5.945652173913043	-0.043478260869565216	10.054347826086957	3.0	0.4122544122544123	2425.686591276252	0.0944527736131934	-0.1424287856071964	-0.5802098950524738	
1.698241540139723E12	5.934782608695652	-0.07608695652173914	10.065217391304348	3.0	0.41269841269841273	2423.076923076923	0.09745127436281859	-0.14842578710644677	-0.5742128935532234	
1.6982415401592534E12	5.967391304347826	-0.06521739130434782	10.065217391304348	3.0	0.41269841269841273	2423.076923076923	0.08995502248875561	-0.14992503748125938	-0.5667166416791604	
1.6982415401787842E12	5.978260869565217	-0.07608695652173914	10.043478260869565	3.0	0.4122544122544123	2425.686591276252	0.08995502248875561	-0.1454272863568216	-0.5697151424287856	
1.6982415401983147E12	5.978260869565217	-0.043478260869565216	10.065217391304348	3.0	0.4122544122544123	2425.686591276252	0.08695652173913043	-0.15442278860569714	-0.5727136431784108	
1.6982415402178452E12	5.934782608695652	-0.05434782608695652	10.065217391304348	3.0	0.41269841269841273	2423.076923076923	0.09295352323838081	-0.14692653673163417	-0.5817091454272864	
1.6982415402373757E12	5.967391304347826	-0.06521739130434782	10.076086956521738	3.0	0.41269841269841273	2423.076923076923	0.0944527736131934	-0.13793103448275862	-0.5697151424287856	
1.6982415402569065E12	6.021739130434782	-0.07608695652173914	10.054347826086957	3.0	0.41269841269841273	2423.076923076923	0.08395802098950525	-0.15592203898050974	-0.5832083958020989	
1.698241540276437E12	5.923913043478261	-0.06521739130434782	10.054347826086957	3.0	0.4122544122544123	2425.686591276252	0.08545727136431784	-0.1454272863568216	-0.5712143928035982	
1.6982415402959675E12	5.923913043478261	-0.06521739130434782	10.065217391304348	3.0	0.4122544122544123	2425.686591276252	0.08695652173913043	-0.1649175412293853	-0.5787106446776612	
1.698241540315498E12	5.913043478260869	-0.05434782608695652	10.054347826086957	3.0	0.4122544122544123	2425.686591276252	0.0914542728635682	-0.15292353823088456	-0.5802098950524738	
1.6982415403350288E12	5.978260869565217	-0.08695652173913043	10.032608695652174	3.0	0.41269841269841273	2423.076923076923	0.09295352323838081	-0.16041979010494753	-0.5697151424287856	
1.6982415403545593E12	6.0	-0.07608695652173914	10.021739130434783	3.0	0.4122544122544123	2425.686591276252	0.0914542728635682	-0.1619190404797601	-0.5802098950524738	
1.6982415403740898E12	5.967391304347826	-0.08695652173913043	10.076086956521738	3.0	0.4122544122544123	2425.686591276252	0.08695652173913043	-0.14992503748125938	-0.5727136431784108	
1.6982415403936204E12	6.0	-0.043478260869565216	10.054347826086957	3.0	0.4122544122544123	2425.686591276252	0.08395802098950525	-0.14992503748125938	-0.5802098950524738	
1.6982415404131511E12	5.956521739130435	-0.06521739130434782	10.032608695652174	3.0	0.4122544122544123	2425.686591276252	0.0914542728635682	-0.1409295352323838	-0.5697151424287856	
1.6982415404326816E12	5.945652173913043	-0.05434782608695652	10.0	3.0	0.41181041181041184	2428.301886792453	0.08995502248875561	-0.1679160419790105	-0.5802098950524738	
1.6982415404522122E12	6.0	-0.10869565217391304	10.01086956521739	3.0	0.4122544122544123	2425.686591276252	0.08845577211394302	-0.14992503748125938	-0.5757121439280359	
1.6982415404717427E12	5.989130434782608	-0.07608695652173914	10.065217391304348	3.0	0.41269841269841273	2423.076923076923	0.08245877061469264	-0.1619190404797601	-0.5727136431784108	
1.6982415404912734E12	5.978260869565217	-0.07608695652173914	10.032608695652174	3.0	0.41269841269841273	2423.076923076923	0.08695652173913043	-0.15892053973013492	-0.5742128935532234	
1.698241540510804E12	5.978260869565217	-0.07608695652173914	10.032608695652174	3.0	0.4122544122544123	2425.686591276252	0.08695652173913043	-0.15892053973013492	-0.5727136431784108	
1.6982415405303345E12	5.989130434782608	-0.05434782608695652	10.065217391304348	3.0	0.41181041181041184	2428.301886792453	0.08095952023988005	-0.15292353823088456	-0.5787106446776612	
1.698241540549865E12	5.989130434782608	-0.06521739130434782	10.043478260869565	3.0	0.4122544122544123	2425.686591276252	0.07496251874062969	-0.17091454272863568	-0.5787106446776612	
1.6982415405693958E12	5.967391304347826	-0.07608695652173914	10.021739130434783	3.0	0.4122544122544123	2425.686591276252	0.08545727136431784	-0.15292353823088456	-0.5802098950524738	
1.6982415405889263E12	5.989130434782608	-0.06521739130434782	10.054347826086957	3.0	0.4122544122544123	2425.686591276252	0.08395802098950525	-0.17391304347826086	-0.5727136431784108	
1.6982415406084568E12	6.010869565217392	-0.03260869565217391	10.054347826086957	3.0	0.41181041181041184	2428.301886792453	0.08545727136431784	-0.1454272863568216	-0.5787106446776612	
1.6982415406279873E12	6.021739130434782	-0.010869565217391304	10.021739130434783	3.0	0.41181041181041184	2428.301886792453	0.07496251874062969	-0.15142428785607195	-0.568215892053973	
1.698241540647518E12	6.010869565217392	0.0	10.043478260869565	3.0	0.4122544122544123	2425.686591276252	0.08995502248875561	-0.1619190404797601	-0.5742128935532234	
1.6982415406670486E12	6.010869565217392	-0.021739130434782608	10.01086956521739	3.0	0.41181041181041184	2428.301886792453	0.08545727136431784	-0.1619190404797601	-0.5727136431784108	
1.698241540686579E12	6.076086956521739	-0.043478260869565216	10.021739130434783	3.0	0.41181041181041184	2428.301886792453	0.08995502248875561	-0.15742128935532235	-0.5697151424287856	
1.6982415407061096E12	6.021739130434782	-0.021739130434782608	10.032608695652174	3.0	0.41181041181041184	2428.301886792453	0.07346326836581708	-0.1664167916041979	-0.5652173913043478	
1.6982415407256404E12	6.032608695652174	0.010869565217391304	10.01086956521739	3.0	0.41181041181041184	2428.301886792453	0.07796101949025487	-0.1619190404797601	-0.5727136431784108	
1.698241540745171E12	6.141304347826087	-0.010869565217391304	9.978260869565217	3.0	0.41181041181041184	2428.301886792453	0.08395802098950525	-0.16041979010494753	-0.5742128935532234	
1.6982415407647014E12	6.173913043478261	-0.021739130434782608	9.989130434782608	3.0	0.41181041181041184	2428.301886792453	0.08095952023988005	-0.1454272863568216	-0.5742128935532234	
1.698241540784232E12	6.173913043478261	-0.010869565217391304	10.01086956521739	3.0	0.41181041181041184	2428.301886792453	0.07346326836581708	-0.15442278860569714	-0.5667166416791604	
1.6982415408037627E12	6.054347826086956	0.0	10.0	3.0	0.41181041181041184	2428.301886792453	0.07346326836581708	-0.15142428785607195	-0.5817091454272864	
1.6982415408232932E12	6.076086956521739	-0.03260869565217391	10.01086956521739	3.0	0.4113664113664114	2430.922827846735	0.08545727136431784	-0.1664167916041979	-0.5622188905547226	
1.6982415408428237E12	6.0978260869565215	0.0	10.01086956521739	3.0	0.4113664113664114	2430.922827846735	0.07496251874062969	-0.16941529235382308	-0.5742128935532234	
1.6982415408623542E12	6.130434782608695	-0.021739130434782608	9.989130434782608	3.0	0.4113664113664114	2430.922827846735	0.07346326836581708	-0.16041979010494753	-0.5667166416791604	
1.698241540881885E12	6.08695652173913	-0.010869565217391304	9.978260869565217	3.0	0.41181041181041184	2428.301886792453	0.07646176911544228	-0.15592203898050974	-0.5712143928035982	
1.6982415409014155E12	6.108695652173913	-0.043478260869565216	10.0	3.0	0.4113664113664114	2430.922827846735	0.07946026986506746	-0.15892053973013492	-0.5712143928035982	
1.698241540920946E12	6.065217391304348	-0.021739130434782608	9.989130434782608	3.0	0.41181041181041184	2428.301886792453	0.08095952023988005	-0.15292353823088456	-0.5772113943028485	
1.6982415409404766E12	6.163043478260869	-0.010869565217391304	9.989130434782608	3.0	0.41181041181041184	2428.301886792453	0.07196401799100449	-0.15742128935532235	-0.568215892053973	
1.6982415409600073E12	6.141304347826087	0.021739130434782608	10.021739130434783	3.0	0.4113664113664114	2430.922827846735	0.07646176911544228	-0.14992503748125938	-0.5757121439280359	
1.6982415409795378E12	6.130434782608695	-0.010869565217391304	10.01086956521739	3.0	0.4113664113664114	2430.922827846735	0.08095952023988005	-0.1679160419790105	-0.568215892053973	
1.6982415409990684E12	6.1521739130434785	0.0	10.032608695652174	3.0	0.41181041181041184	2428.301886792453	0.07496251874062969	-0.16041979010494753	-0.5637181409295352	
1.6982415410185989E12	6.065217391304348	0.010869565217391304	10.01086956521739	3.0	0.4113664113664114	2430.922827846735	0.08695652173913043	-0.16041979010494753	-0.5757121439280359	
1.6982415410381296E12	6.173913043478261	0.021739130434782608	9.989130434782608	3.0	0.41181041181041184	2428.301886792453	0.08395802098950525	-0.1649175412293853	-0.5742128935532234	
1.6982415410576602E12	6.163043478260869	0.0	10.0	3.0	0.4113664113664114	2430.922827846735	0.08095952023988005	-0.17541229385307347	-0.5757121439280359	
1.6982415410771907E12	6.173913043478261	-0.010869565217391304	10.0	3.0	0.41181041181041184	2428.301886792453	0.07496251874062969	-0.14842578710644677	-0.5697151424287856	
1.6982415410967212E12	6.076086956521739	0.0	10.032608695652174	3.0	0.4113664113664114	2430.922827846735	0.08545727136431784	-0.15742128935532235	-0.5697151424287856	
1.698241541116252E12	6.032608695652174	-0.010869565217391304	10.032608695652174	3.0	0.4113664113664114	2430.922827846735	0.07496251874062969	-0.1664167916041979	-0.5757121439280359	
1.6982415411357825E12	6.08695652173913	-0.03260869565217391	10.0	3.0	0.4113664113664114	2430.922827846735	0.07946026986506746	-0.14992503748125938	-0.5667166416791604	
1.698241541155313E12	6.0978260869565215	-0.06521739130434782	10.043478260869565	3.0	0.410922410922411	2433.5494327390597	0.08095952023988005	-0.1619190404797601	-0.5772113943028485	
1.6982415411748435E12	5.989130434782608	-0.03260869565217391	9.978260869565217	3.0	0.4113664113664114	2430.922827846735	0.07496251874062969	-0.15592203898050974	-0.5637181409295352	
1.6982415411943743E12	6.239130434782608	-0.10869565217391304	10.0	3.0	0.4113664113664114	2430.922827846735	0.07796101949025487	-0.1679160419790105	-0.5757121439280359	
1.6982415412139048E12	5.967391304347826	-0.09782608695652173	9.956521739130434	3.0	0.410922410922411	2433.5494327390597	0.07496251874062969	-0.15592203898050974	-0.5697151424287856	
1.6982415412334353E12	6.08695652173913	-0.09782608695652173	9.945652173913043	3.0	0.4113664113664114	2430.922827846735	0.08095952023988005	-0.15592203898050974	-0.5697151424287856	
1.6982415412529658E12	6.108695652173913	-0.043478260869565216	9.989130434782608	3.0	0.4113664113664114	2430.922827846735	0.07646176911544228	-0.1634182908545727	-0.5802098950524738	
1.6982415412724966E12	6.076086956521739	-0.043478260869565216	9.967391304347826	3.0	0.4113664113664114	2430.922827846735	0.08845577211394302	-0.1664167916041979	-0.5637181409295352	
1.698241541292027E12	6.08695652173913	0.021739130434782608	9.989130434782608	3.0	0.4113664113664114	2430.922827846735	0.07796101949025487	-0.17241379310344826	-0.5652173913043478	
1.6982415413115576E12	6.141304347826087	-0.021739130434782608	9.978260869565217	3.0	0.4113664113664114	2430.922827846735	0.07196401799100449	-0.14692653673163417	-0.5727136431784108	
1.6982415413310881E12	6.1521739130434785	-0.021739130434782608	10.021739130434783	3.0	0.410922410922411	2433.5494327390597	0.08395802098950525	-0.1619190404797601	-0.5757121439280359	
1.698241541350619E12	6.141304347826087	0.010869565217391304	10.0	3.0	0.4113664113664114	2430.922827846735	0.07646176911544228	-0.14842578710644677	-0.5667166416791604	
1.6982415413701494E12	6.141304347826087	-0.021739130434782608	9.956521739130434	3.0	0.410922410922411	2433.5494327390597	0.07796101949025487	-0.16041979010494753	-0.5802098950524738	
1.69824154138968E12	6.130434782608695	-0.043478260869565216	10.0	3.0	0.4113664113664114	2430.922827846735	0.08245877061469264	-0.14692653673163417	-0.5667166416791604	
1.6982415414092104E12	6.0978260869565215	-0.05434782608695652	10.0	3.0	0.410922410922411	2433.5494327390597	0.07196401799100449	-0.15142428785607195	-0.5742128935532234	
1.6982415414287412E12	6.065217391304348	-0.043478260869565216	9.967391304347826	3.0	0.4113664113664114	2430.922827846735	0.08245877061469264	-0.1454272863568216	-0.5847076461769115	
1.6982415414482717E12	6.076086956521739	-0.07608695652173914	9.956521739130434	3.0	0.410922410922411	2433.5494327390597	0.08095952023988005	-0.1619190404797601	-0.5817091454272864	
1.6982415414678022E12	6.076086956521739	-0.03260869565217391	9.989130434782608	3.0	0.4104784104784105	2436.1817198485664	0.08545727136431784	-0.15292353823088456	-0.5787106446776612	
1.698241541487333E12	6.0978260869565215	-0.03260869565217391	10.01086956521739	3.0	0.410922410922411	2433.5494327390597	0.08395802098950525	-0.17541229385307347	-0.5772113943028485	
1.6982415415068635E12	6.08695652173913	-0.010869565217391304	10.01086956521739	3.0	0.410922410922411	2433.5494327390597	0.08395802098950525	-0.15592203898050974	-0.5772113943028485	
1.698241541526394E12	6.1521739130434785	0.0	10.0	3.0	0.4104784104784105	2436.1817198485664	0.08095952023988005	-0.15892053973013492	-0.5592203898050975	
1.6982415415459246E12	6.130434782608695	-0.010869565217391304	10.01086956521739	3.0	0.410922410922411	2433.5494327390597	0.08545727136431784	-0.16941529235382308	-0.5697151424287856	
1.6982415415654553E12	6.108695652173913	-0.021739130434782608	10.01086956521739	3.0	0.410922410922411	2433.5494327390597	0.07196401799100449	-0.17391304347826086	-0.5817091454272864	
1.6982415415849858E12	6.043478260869565	-0.043478260869565216	9.967391304347826	3.0	0.410922410922411	2433.5494327390597	0.08845577211394302	-0.14842578710644677	-0.5802098950524738	
1.6982415416045164E12	6.130434782608695	-0.05434782608695652	10.01086956521739	3.0	0.4104784104784105	2436.1817198485664	0.07646176911544228	-0.16041979010494753	-0.5742128935532234	
1.6982415416240469E12	6.141304347826087	0.0	9.989130434782608	3.0	0.410922410922411	2433.5494327390597	0.07646176911544228	-0.15592203898050974	-0.5712143928035982	
1.6982415416435776E12	6.130434782608695	-0.021739130434782608	10.0	3.0	0.410922410922411	2433.5494327390597	0.08395802098950525	-0.15442278860569714	-0.5742128935532234	
1.6982415416631082E12	6.1521739130434785	0.0	10.021739130434783	3.0	0.410922410922411	2433.5494327390597	0.08695652173913043	-0.15592203898050974	-0.5742128935532234	
1.6982415416826387E12	6.0978260869565215	-0.043478260869565216	10.021739130434783	3.0	0.4104784104784105	2436.1817198485664	0.07796101949025487	-0.1424287856071964	-0.5667166416791604	
1.6982415417021692E12	6.130434782608695	-0.021739130434782608	9.978260869565217	3.0	0.4104784104784105	2436.1817198485664	0.07946026986506746	-0.14392803598200898	-0.568215892053973	
1.6982415417217E12	6.130434782608695	-0.043478260869565216	10.0	3.0	0.4104784104784105	2436.1817198485664	0.07946026986506746	-0.15892053973013492	-0.5667166416791604	
1.6982415417412305E12	6.108695652173913	-0.043478260869565216	9.978260869565217	3.0	0.4104784104784105	2436.1817198485664	0.07646176911544228	-0.15892053973013492	-0.5727136431784108	
1.698241541760761E12	6.119565217391304	-0.06521739130434782	9.989130434782608	3.0	0.4104784104784105	2436.1817198485664	0.07946026986506746	-0.1619190404797601	-0.5787106446776612	
1.6982415417802915E12	6.108695652173913	-0.043478260869565216	10.032608695652174	3.0	0.4104784104784105	2436.1817198485664	0.08845577211394302	-0.15442278860569714	-0.5697151424287856	
1.6982415417998223E12	6.108695652173913	-0.06521739130434782	10.0	3.0	0.4104784104784105	2436.1817198485664	0.08545727136431784	-0.15592203898050974	-0.5742128935532234	
1.6982415418193528E12	6.08695652173913	-0.043478260869565216	10.0	3.0	0.410922410922411	2433.5494327390597	0.08395802098950525	-0.15742128935532235	-0.5787106446776612	
1.6982415418388833E12	6.130434782608695	-0.043478260869565216	10.0	3.0	0.41003441003441	2438.819707634001	0.08845577211394302	-0.15592203898050974	-0.5787106446776612	
1.6982415418584138E12	6.076086956521739	-0.05434782608695652	9.978260869565217	3.0	0.410922410922411	2433.5494327390597	0.0914542728635682	-0.14392803598200898	-0.5652173913043478	
1.6982415418779446E12	6.0978260869565215	-0.043478260869565216	9.956521739130434	3.0	0.4104784104784105	2436.1817198485664	0.08095952023988005	-0.1619190404797601	-0.5712143928035982	
1.698241541897475E12	6.0978260869565215	-0.043478260869565216	9.978260869565217	3.0	0.4104784104784105	2436.1817198485664	0.07346326836581708	-0.15142428785607195	-0.5742128935532234	
1.6982415419170056E12	6.108695652173913	-0.03260869565217391	10.0	3.0	0.41003441003441	2438.819707634001	0.08395802098950525	-0.1424287856071964	-0.5697151424287856	
1.6982415419365361E12	6.108695652173913	-0.05434782608695652	10.021739130434783	3.0	0.41003441003441	2438.819707634001	0.08095952023988005	-0.16941529235382308	-0.5742128935532234	
1.698241541956067E12	6.0978260869565215	-0.043478260869565216	10.01086956521739	3.0	0.4104784104784105	2436.1817198485664	0.07646176911544228	-0.15442278860569714	-0.56071964017991	
1.6982415419755974E12	6.0978260869565215	-0.03260869565217391	9.978260869565217	3.0	0.4104784104784105	2436.1817198485664	0.08095952023988005	-0.1454272863568216	-0.568215892053973	
1.698241541995128E12	6.076086956521739	-0.06521739130434782	10.021739130434783	3.0	0.41003441003441	2438.819707634001	0.08695652173913043	-0.15892053973013492	-0.5697151424287856	
1.6982415420146584E12	6.065217391304348	-0.03260869565217391	10.021739130434783	3.0	0.41003441003441	2438.819707634001	0.07796101949025487	-0.16041979010494753	-0.568215892053973	
1.6982415420341892E12	6.0978260869565215	-0.06521739130434782	10.0	3.0	0.41003441003441	2438.819707634001	0.08395802098950525	-0.15442278860569714	-0.5787106446776612	
1.6982415420537197E12	6.08695652173913	-0.043478260869565216	10.0	3.0	0.41003441003441	2438.819707634001	0.07796101949025487	-0.15292353823088456	-0.5592203898050975	
1.6982415420732502E12	6.0978260869565215	-0.05434782608695652	10.0	3.0	0.41003441003441	2438.819707634001	0.08545727136431784	-0.15592203898050974	-0.5742128935532234	
1.6982415420927808E12	6.119565217391304	-0.03260869565217391	10.0	3.0	0.41003441003441	2438.819707634001	0.08545727136431784	-0.15442278860569714	-0.5667166416791604	
1.6982415421123115E12	6.108695652173913	-0.043478260869565216	10.01086956521739	3.0	0.41003441003441	2438.819707634001	0.08995502248875561	-0.15142428785607195	-0.5742128935532234	
1.698241542131842E12	6.130434782608695	-0.05434782608695652	9.967391304347826	3.0	0.41003441003441	2438.819707634001	0.08695652173913043	-0.14692653673163417	-0.5712143928035982	
1.6982415421513726E12	6.0978260869565215	-0.043478260869565216	9.956521739130434	3.0	0.4104784104784105	2436.1817198485664	0.08395802098950525	-0.14992503748125938	-0.568215892053973	
1.698241542170903E12	6.119565217391304	-0.08695652173913043	9.967391304347826	3.0	0.41003441003441	2438.819707634001	0.08545727136431784	-0.15442278860569714	-0.5772113943028485	
1.6982415421904338E12	6.130434782608695	-0.05434782608695652	9.956521739130434	3.0	0.41003441003441	2438.819707634001	0.08845577211394302	-0.14842578710644677	-0.5802098950524738	
1.6982415422099644E12	6.130434782608695	-0.05434782608695652	9.978260869565217	3.0	0.4095904095904096	2441.4634146341464	0.08245877061469264	-0.1454272863568216	-0.5697151424287856	
1.6982415422294949E12	6.108695652173913	-0.07608695652173914	9.989130434782608	3.0	0.41003441003441	2438.819707634001	0.08095952023988005	-0.15142428785607195	-0.5652173913043478	
1.6982415422490254E12	6.076086956521739	-0.021739130434782608	10.01086956521739	3.0	0.4095904095904096	2441.4634146341464	0.07946026986506746	-0.1649175412293853	-0.5652173913043478	
1.6982415422685562E12	6.108695652173913	-0.05434782608695652	9.989130434782608	3.0	0.41003441003441	2438.819707634001	0.08695652173913043	-0.15592203898050974	-0.5802098950524738	
1.6982415422880867E12	6.065217391304348	-0.03260869565217391	9.967391304347826	3.0	0.4104784104784105	2436.1817198485664	0.08545727136431784	-0.14392803598200898	-0.5757121439280359	
1.6982415423076172E12	6.08695652173913	-0.043478260869565216	10.0	3.0	0.4095904095904096	2441.4634146341464	0.07646176911544228	-0.15292353823088456	-0.5787106446776612	
1.6982415423271477E12	6.0978260869565215	-0.03260869565217391	10.0	3.0	0.41003441003441	2438.819707634001	0.08845577211394302	-0.15892053973013492	-0.568215892053973	
1.6982415423466785E12	6.119565217391304	0.0	10.043478260869565	3.0	0.41003441003441	2438.819707634001	0.08095952023988005	-0.15142428785607195	-0.5727136431784108	
1.698241542366209E12	6.108695652173913	-0.021739130434782608	10.01086956521739	3.0	0.41003441003441	2438.819707634001	0.08095952023988005	-0.15442278860569714	-0.5772113943028485	
1.6982415423857395E12	6.130434782608695	-0.021739130434782608	9.978260869565217	3.0	0.4095904095904096	2441.4634146341464	0.0914542728635682	-0.1409295352323838	-0.568215892053973	
1.69824154240527E12	6.119565217391304	-0.010869565217391304	9.989130434782608	3.0	0.4095904095904096	2441.4634146341464	0.0914542728635682	-0.14392803598200898	-0.5802098950524738	
1.6982415424248008E12	6.0978260869565215	-0.03260869565217391	9.978260869565217	3.0	0.4095904095904096	2441.4634146341464	0.08395802098950525	-0.1619190404797601	-0.5817091454272864	
1.6982415424443313E12	6.108695652173913	-0.05434782608695652	9.967391304347826	3.0	0.4095904095904096	2441.4634146341464	0.08245877061469264	-0.15892053973013492	-0.5757121439280359	
1.6982415424638618E12	6.119565217391304	-0.010869565217391304	9.989130434782608	3.0	0.40914640914640915	2444.112859468258	0.07496251874062969	-0.17091454272863568	-0.5727136431784108	
1.6982415424833923E12	6.130434782608695	-0.03260869565217391	9.978260869565217	3.0	0.41003441003441	2438.819707634001	0.07946026986506746	-0.15442278860569714	-0.5772113943028485	
1.698241542502923E12	6.0978260869565215	-0.03260869565217391	9.967391304347826	3.0	0.41003441003441	2438.819707634001	0.07946026986506746	-0.15442278860569714	-0.5817091454272864	
1.6982415425224536E12	6.0978260869565215	-0.043478260869565216	9.978260869565217	3.0	0.41003441003441	2438.819707634001	0.08395802098950525	-0.15892053973013492	-0.5787106446776612	
1.6982415425419841E12	6.108695652173913	-0.05434782608695652	9.978260869565217	3.0	0.4095904095904096	2441.4634146341464	0.08395802098950525	-0.1664167916041979	-0.5697151424287856	
1.6982415425615146E12	6.0978260869565215	-0.03260869565217391	10.01086956521739	3.0	0.4095904095904096	2441.4634146341464	0.08395802098950525	-0.15292353823088456	-0.5757121439280359	
1.6982415425810454E12	6.076086956521739	-0.043478260869565216	9.978260869565217	3.0	0.4095904095904096	2441.4634146341464	0.07796101949025487	-0.15592203898050974	-0.5787106446776612	
1.698241542600576E12	6.0978260869565215	-0.05434782608695652	9.989130434782608	3.0	0.4095904095904096	2441.4634146341464	0.0914542728635682	-0.15292353823088456	-0.5667166416791604	
1.6982415426201064E12	6.130434782608695	-0.021739130434782608	10.0	3.0	0.4095904095904096	2441.4634146341464	0.07196401799100449	-0.1619190404797601	-0.5727136431784108	
1.698241542639637E12	6.08695652173913	-0.021739130434782608	10.0	3.0	0.4095904095904096	2441.4634146341464	0.07496251874062969	-0.17841079460269865	-0.5712143928035982	
1.6982415426591677E12	6.108695652173913	-0.043478260869565216	10.0	3.0	0.41003441003441	2438.819707634001	0.08395802098950525	-0.1454272863568216	-0.5772113943028485	
1.6982415426786982E12	6.119565217391304	-0.03260869565217391	9.967391304347826	3.0	0.4095904095904096	2441.4634146341464	0.07496251874062969	-0.16041979010494753	-0.5712143928035982	
1.6982415426982288E12	6.119565217391304	-0.07608695652173914	10.0	3.0	0.40914640914640915	2444.112859468258	0.07946026986506746	-0.15442278860569714	-0.5697151424287856	
1.6982415427177593E12	6.130434782608695	-0.05434782608695652	10.0	3.0	0.4095904095904096	2441.4634146341464	0.07946026986506746	-0.1649175412293853	-0.5757121439280359	
1.69824154273729E12	6.108695652173913	-0.05434782608695652	9.978260869565217	3.0	0.4095904095904096	2441.4634146341464	0.08245877061469264	-0.15742128935532235	-0.5772113943028485	
1.6982415427568206E12	6.0978260869565215	-0.021739130434782608	9.989130434782608	3.0	0.4095904095904096	2441.4634146341464	0.08245877061469264	-0.15742128935532235	-0.5757121439280359	
1.698241542776351E12	6.108695652173913	-0.03260869565217391	10.032608695652174	3.0	0.40914640914640915	2444.112859468258	0.08395802098950525	-0.14992503748125938	-0.568215892053973	
1.6982415427958816E12	6.108695652173913	-0.010869565217391304	10.0	3.0	0.40914640914640915	2444.112859468258	0.07946026986506746	-0.16941529235382308	-0.5712143928035982	
1.6982415428154124E12	6.0978260869565215	-0.043478260869565216	9.989130434782608	3.0	0.40914640914640915	2444.112859468258	0.06746626686656672	-0.15592203898050974	-0.5832083958020989	
1.6982415428349429E12	6.076086956521739	-0.043478260869565216	10.0	3.0	0.41003441003441	2438.819707634001	0.08395802098950525	-0.14842578710644677	-0.5772113943028485	
1.6982415428544734E12	6.08695652173913	-0.03260869565217391	9.978260869565217	3.0	0.40914640914640915	2444.112859468258	0.07796101949025487	-0.15592203898050974	-0.5757121439280359	
1.698241542874004E12	6.108695652173913	-0.043478260869565216	9.956521739130434	3.0	0.4095904095904096	2441.4634146341464	0.07646176911544228	-0.17091454272863568	-0.5742128935532234	
1.6982415428935347E12	6.0978260869565215	-0.05434782608695652	9.989130434782608	3.0	0.40914640914640915	2444.112859468258	0.08245877061469264	-0.15142428785607195	-0.5757121439280359	
1.6982415429130652E12	6.141304347826087	-0.010869565217391304	9.989130434782608	3.0	0.4095904095904096	2441.4634146341464	0.06896551724137931	-0.1634182908545727	-0.5697151424287856	
1.6982415429325957E12	6.130434782608695	-0.010869565217391304	9.989130434782608	3.0	0.40914640914640915	2444.112859468258	0.08395802098950525	-0.15292353823088456	-0.5772113943028485	
1.6982415429521262E12	6.130434782608695	-0.010869565217391304	9.989130434782608	3.0	0.40914640914640915	2444.112859468258	0.08245877061469264	-0.1619190404797601	-0.5757121439280359	
1.698241542971657E12	6.1521739130434785	-0.021739130434782608	9.956521739130434	3.0	0.4095904095904096	2441.4634146341464	0.07346326836581708	-0.15442278860569714	-0.5697151424287856	
1.6982415429911875E12	6.141304347826087	-0.03260869565217391	10.01086956521739	3.0	0.4095904095904096	2441.4634146341464	0.07946026986506746	-0.1664167916041979	-0.5727136431784108	
1.698241543010718E12	6.108695652173913	-0.010869565217391304	10.0	3.0	0.40914640914640915	2444.112859468258	0.07496251874062969	-0.15742128935532235	-0.5712143928035982	
1.6982415430302485E12	6.108695652173913	-0.021739130434782608	9.978260869565217	3.0	0.40914640914640915	2444.112859468258	0.08095952023988005	-0.15442278860569714	-0.5742128935532234	
1.6982415430497793E12	6.08695652173913	-0.021739130434782608	9.978260869565217	3.0	0.40914640914640915	2444.112859468258	0.0914542728635682	-0.1619190404797601	-0.5697151424287856	
1.6982415430693098E12	6.130434782608695	-0.021739130434782608	10.0	3.0	0.40914640914640915	2444.112859468258	0.08245877061469264	-0.1679160419790105	-0.5802098950524738	
1.6982415430888403E12	6.119565217391304	-0.021739130434782608	10.021739130434783	3.0	0.40914640914640915	2444.112859468258	0.07946026986506746	-0.14992503748125938	-0.5697151424287856	
1.6982415431083708E12	6.076086956521739	-0.03260869565217391	10.01086956521739	3.0	0.40914640914640915	2444.112859468258	0.07346326836581708	-0.16041979010494753	-0.5652173913043478	
1.6982415431279016E12	6.08695652173913	-0.021739130434782608	9.967391304347826	3.0	0.4095904095904096	2441.4634146341464	0.07196401799100449	-0.17391304347826086	-0.5757121439280359	
1.6982415431474321E12	6.163043478260869	0.0	9.956521739130434	3.0	0.4095904095904096	2441.4634146341464	0.07946026986506746	-0.15892053973013492	-0.5697151424287856	
1.6982415431669626E12	6.119565217391304	0.0	10.01086956521739	3.0	0.40914640914640915	2444.112859468258	0.08245877061469264	-0.15742128935532235	-0.5802098950524738	
1.6982415431864932E12	6.1521739130434785	0.010869565217391304	10.032608695652174	3.0	0.40914640914640915	2444.112859468258	0.0914542728635682	-0.1409295352323838	-0.5622188905547226	
1.698241543206024E12	6.119565217391304	0.021739130434782608	9.989130434782608	3.0	0.40914640914640915	2444.112859468258	0.08395802098950525	-0.17391304347826086	-0.5742128935532234	
1.6982415432255544E12	6.076086956521739	0.0	10.0	3.0	0.40914640914640915	2444.112859468258	0.07346326836581708	-0.14692653673163417	-0.5757121439280359	
1.698241543245085E12	6.130434782608695	0.0	10.0	3.0	0.40914640914640915	2444.112859468258	0.07646176911544228	-0.1649175412293853	-0.5652173913043478	
1.6982415432646155E12	6.119565217391304	0.0	9.978260869565217	3.0	0.40914640914640915	2444.112859468258	0.07796101949025487	-0.15142428785607195	-0.5742128935532234	
1.6982415432841462E12	6.119565217391304	-0.010869565217391304	10.01086956521739	3.0	0.40914640914640915	2444.112859468258	0.07196401799100449	-0.15742128935532235	-0.5622188905547226	
1.6982415433036768E12	6.119565217391304	0.0	9.989130434782608	3.0	0.4095904095904096	2441.4634146341464	0.08395802098950525	-0.1664167916041979	-0.5772113943028485	
1.6982415433232073E12	6.108695652173913	-0.010869565217391304	10.0	3.0	0.40914640914640915	2444.112859468258	0.0704647676161919	-0.17091454272863568	-0.5727136431784108	
1.698241543342738E12	6.08695652173913	-0.021739130434782608	9.989130434782608	3.0	0.40914640914640915	2444.112859468258	0.07346326836581708	-0.15142428785607195	-0.5877061469265367	
1.6982415433622686E12	6.108695652173913	-0.010869565217391304	10.0	3.0	0.40914640914640915	2444.112859468258	0.0944527736131934	-0.15892053973013492	-0.5802098950524738	
1.698241543381799E12	6.108695652173913	0.0	9.989130434782608	3.0	0.40914640914640915	2444.112859468258	0.07646176911544228	-0.15742128935532235	-0.5667166416791604	
1.6982415434013296E12	6.0978260869565215	-0.021739130434782608	10.0	3.0	0.40914640914640915	2444.112859468258	0.08695652173913043	-0.14842578710644677	-0.5757121439280359	
1.6982415434208604E12	6.119565217391304	0.0	9.956521739130434	3.0	0.40914640914640915	2444.112859468258	0.07346326836581708	-0.15892053973013492	-0.5727136431784108	
1.6982415434403909E12	6.130434782608695	0.0	9.978260869565217	3.0	0.40914640914640915	2444.112859468258	0.08245877061469264	-0.15892053973013492	-0.5757121439280359	
1.6982415434599214E12	6.141304347826087	0.010869565217391304	9.967391304347826	3.0	0.4087024087024087	2446.7680608365017	0.08095952023988005	-0.1679160419790105	-0.5667166416791604	
1.698241543479452E12	6.130434782608695	0.0	10.01086956521739	3.0	0.4087024087024087	2446.7680608365017	0.08245877061469264	-0.15892053973013492	-0.5772113943028485	
1.6982415434989827E12	6.141304347826087	0.021739130434782608	10.01086956521739	3.0	0.4087024087024087	2446.7680608365017	0.07796101949025487	-0.15892053973013492	-0.5757121439280359	
1.6982415435185132E12	6.119565217391304	0.010869565217391304	10.032608695652174	3.0	0.40914640914640915	2444.112859468258	0.07346326836581708	-0.1679160419790105	-0.5817091454272864	
1.6982415435380437E12	6.076086956521739	-0.021739130434782608	9.989130434782608	3.0	0.40914640914640915	2444.112859468258	0.07946026986506746	-0.17241379310344826	-0.5727136431784108	
1.6982415435575742E12	6.0978260869565215	-0.03260869565217391	9.989130434782608	3.0	0.40914640914640915	2444.112859468258	0.08395802098950525	-0.16041979010494753	-0.5712143928035982	
1.698241543577105E12	6.119565217391304	-0.021739130434782608	9.934782608695652	3.0	0.4087024087024087	2446.7680608365017	0.07946026986506746	-0.16041979010494753	-0.5727136431784108	
1.6982415435966355E12	6.1521739130434785	0.0	9.978260869565217	3.0	0.40914640914640915	2444.112859468258	0.0704647676161919	-0.1679160419790105	-0.568215892053973	
1.698241543616166E12	6.119565217391304	-0.021739130434782608	9.967391304347826	3.0	0.40914640914640915	2444.112859468258	0.08095952023988005	-0.15292353823088456	-0.5697151424287856	
1.6982415436356965E12	6.108695652173913	0.0	10.021739130434783	3.0	0.4087024087024087	2446.7680608365017	0.08395802098950525	-0.1649175412293853	-0.5667166416791604	
1.6982415436552273E12	6.141304347826087	0.010869565217391304	10.01086956521739	3.0	0.4087024087024087	2446.7680608365017	0.06896551724137931	-0.1664167916041979	-0.5802098950524738	
1.6982415436747578E12	6.130434782608695	-0.021739130434782608	10.01086956521739	3.0	0.4087024087024087	2446.7680608365017	0.07796101949025487	-0.1454272863568216	-0.56071964017991	
1.6982415436942883E12	6.130434782608695	-0.043478260869565216	9.967391304347826	3.0	0.4087024087024087	2446.7680608365017	0.08845577211394302	-0.15442278860569714	-0.5787106446776612	
1.6982415437138188E12	6.076086956521739	-0.043478260869565216	9.978260869565217	3.0	0.4087024087024087	2446.7680608365017	0.08245877061469264	-0.15592203898050974	-0.5652173913043478	
1.6982415437333496E12	6.065217391304348	-0.021739130434782608	9.92391304347826	3.0	0.4087024087024087	2446.7680608365017	0.08095952023988005	-0.15742128935532235	-0.568215892053973	
1.6982415437528801E12	6.0978260869565215	0.010869565217391304	9.967391304347826	3.0	0.4087024087024087	2446.7680608365017	0.07946026986506746	-0.15592203898050974	-0.5727136431784108	
1.6982415437724106E12	6.141304347826087	0.0	9.978260869565217	3.0	0.4087024087024087	2446.7680608365017	0.07646176911544228	-0.16941529235382308	-0.56071964017991	
1.6982415437919412E12	6.1521739130434785	0.021739130434782608	10.0	3.0	0.4087024087024087	2446.7680608365017	0.07946026986506746	-0.17091454272863568	-0.5727136431784108	
1.698241543811472E12	6.206521739130435	0.05434782608695652	9.967391304347826	3.0	0.4082584082584083	2449.4290375203914	0.07946026986506746	-0.1649175412293853	-0.5757121439280359	
1.6982415438310024E12	6.184782608695652	0.03260869565217391	10.01086956521739	3.0	0.4087024087024087	2446.7680608365017	0.07346326836581708	-0.1649175412293853	-0.5637181409295352	
1.698241543850533E12	6.141304347826087	0.043478260869565216	10.021739130434783	3.0	0.4087024087024087	2446.7680608365017	0.08545727136431784	-0.14392803598200898	-0.5562218890554722	
1.6982415438700635E12	6.130434782608695	0.03260869565217391	10.01086956521739	3.0	0.4082584082584083	2449.4290375203914	0.08395802098950525	-0.16041979010494753	-0.5727136431784108	
1.6982415438895942E12	6.141304347826087	0.010869565217391304	10.032608695652174	3.0	0.4087024087024087	2446.7680608365017	0.07946026986506746	-0.16041979010494753	-0.5832083958020989	
1.6982415439091248E12	6.0978260869565215	-0.03260869565217391	9.967391304347826	3.0	0.4087024087024087	2446.7680608365017	0.08545727136431784	-0.1649175412293853	-0.5697151424287856	
1.6982415439286553E12	6.08695652173913	-0.06521739130434782	9.956521739130434	3.0	0.4087024087024087	2446.7680608365017	0.07496251874062969	-0.1634182908545727	-0.5697151424287856	
1.6982415439481858E12	6.0978260869565215	-0.08695652173913043	9.989130434782608	3.0	0.4082584082584083	2449.4290375203914	0.07946026986506746	-0.15892053973013492	-0.5772113943028485	
1.6982415439677166E12	6.08695652173913	-0.08695652173913043	9.967391304347826	3.0	0.4082584082584083	2449.4290375203914	0.0914542728635682	-0.17091454272863568	-0.5697151424287856	
1.698241543987247E12	6.08695652173913	-0.021739130434782608	9.956521739130434	3.0	0.4082584082584083	2449.4290375203914	0.08095952023988005	-0.15742128935532235	-0.5667166416791604	
1.6982415440067776E12	6.0978260869565215	0.021739130434782608	9.956521739130434	3.0	0.4087024087024087	2446.7680608365017	0.07646176911544228	-0.15892053973013492	-0.5697151424287856	
1.698241544026308E12	6.130434782608695	0.021739130434782608	10.0	3.0	0.4082584082584083	2449.4290375203914	0.07646176911544228	-0.15592203898050974	-0.5712143928035982	
1.6982415440458389E12	6.119565217391304	0.021739130434782608	9.967391304347826	3.0	0.4082584082584083	2449.4290375203914	0.07646176911544228	-0.1634182908545727	-0.5757121439280359	
1.6982415440653694E12	6.163043478260869	0.05434782608695652	9.978260869565217	3.0	0.4082584082584083	2449.4290375203914	0.07646176911544228	-0.15592203898050974	-0.5712143928035982	
1.6982415440849E12	6.173913043478261	0.021739130434782608	9.978260869565217	3.0	0.4082584082584083	2449.4290375203914	0.07946026986506746	-0.1634182908545727	-0.56071964017991	
1.6982415441044304E12	6.173913043478261	0.021739130434782608	10.0	3.0	0.4082584082584083	2449.4290375203914	0.07496251874062969	-0.15742128935532235	-0.5712143928035982	
1.6982415441239612E12	6.163043478260869	0.010869565217391304	10.0	3.0	0.4082584082584083	2449.4290375203914	0.07646176911544228	-0.1619190404797601	-0.568215892053973	
1.6982415441434917E12	6.130434782608695	0.043478260869565216	10.01086956521739	3.0	0.4082584082584083	2449.4290375203914	0.08245877061469264	-0.1664167916041979	-0.5787106446776612	
1.6982415441630222E12	6.163043478260869	0.043478260869565216	10.021739130434783	3.0	0.4082584082584083	2449.4290375203914	0.08245877061469264	-0.1454272863568216	-0.5712143928035982	
1.6982415441825527E12	6.130434782608695	0.03260869565217391	10.021739130434783	3.0	0.4082584082584083	2449.4290375203914	0.08095952023988005	-0.1679160419790105	-0.5652173913043478	
1.6982415442020835E12	6.141304347826087	0.0	10.0	3.0	0.4082584082584083	2449.4290375203914	0.06746626686656672	-0.15742128935532235	-0.5577211394302848	
1.698241544221614E12	6.0978260869565215	-0.043478260869565216	10.032608695652174	3.0	0.4082584082584083	2449.4290375203914	0.07796101949025487	-0.1454272863568216	-0.5757121439280359	
1.6982415442411445E12	6.076086956521739	-0.03260869565217391	9.967391304347826	3.0	0.4078144078144078	2452.0958083832334	0.08545727136431784	-0.15892053973013492	-0.5772113943028485	
1.698241544260675E12	6.08695652173913	-0.05434782608695652	9.978260869565217	3.0	0.4082584082584083	2449.4290375203914	0.0704647676161919	-0.14842578710644677	-0.5712143928035982	
1.6982415442802058E12	6.130434782608695	-0.010869565217391304	9.967391304347826	3.0	0.4082584082584083	2449.4290375203914	0.08245877061469264	-0.1649175412293853	-0.5697151424287856	
1.6982415442997363E12	6.141304347826087	-0.021739130434782608	9.967391304347826	3.0	0.4078144078144078	2452.0958083832334	0.07796101949025487	-0.1634182908545727	-0.5712143928035982	
1.6982415443192668E12	6.119565217391304	0.010869565217391304	9.956521739130434	3.0	0.4078144078144078	2452.0958083832334	0.08395802098950525	-0.15892053973013492	-0.5652173913043478	
1.6982415443387974E12	6.130434782608695	0.0	9.956521739130434	3.0	0.4082584082584083	2449.4290375203914	0.07346326836581708	-0.14842578710644677	-0.5727136431784108	
1.6982415443583281E12	6.0978260869565215	0.03260869565217391	9.978260869565217	3.0	0.4078144078144078	2452.0958083832334	0.08545727136431784	-0.15742128935532235	-0.5877061469265367	
1.6982415443778586E12	6.173913043478261	0.03260869565217391	9.945652173913043	3.0	0.4078144078144078	2452.0958083832334	0.07946026986506746	-0.15442278860569714	-0.5772113943028485	
1.6982415443973892E12	6.163043478260869	0.043478260869565216	9.978260869565217	3.0	0.4078144078144078	2452.0958083832334	0.08095952023988005	-0.15592203898050974	-0.5652173913043478	
1.6982415444169197E12	6.195652173913043	0.043478260869565216	10.01086956521739	3.0	0.4078144078144078	2452.0958083832334	0.07346326836581708	-0.1649175412293853	-0.5652173913043478	
1.6982415444364504E12	6.173913043478261	0.05434782608695652	10.021739130434783	3.0	0.4078144078144078	2452.0958083832334	0.06896551724137931	-0.17391304347826086	-0.5652173913043478	
1.698241544455981E12	6.163043478260869	0.043478260869565216	10.01086956521739	3.0	0.4078144078144078	2452.0958083832334	0.07646176911544228	-0.1649175412293853	-0.5742128935532234	
1.6982415444755115E12	6.119565217391304	0.021739130434782608	10.01086956521739	3.0	0.4078144078144078	2452.0958083832334	0.07796101949025487	-0.1634182908545727	-0.5577211394302848	
1.698241544495042E12	6.1521739130434785	-0.021739130434782608	10.021739130434783	3.0	0.40737040737040736	2454.768392370572	0.08545727136431784	-0.18140929535232383	-0.5772113943028485	
1.6982415445145728E12	6.119565217391304	-0.03260869565217391	10.0	3.0	0.40737040737040736	2454.768392370572	0.07796101949025487	-0.15892053973013492	-0.5637181409295352	
1.6982415445341033E12	6.108695652173913	-0.021739130434782608	10.01086956521739	3.0	0.40737040737040736	2454.768392370572	0.08545727136431784	-0.14842578710644677	-0.568215892053973	
1.6982415445536338E12	6.119565217391304	-0.03260869565217391	9.956521739130434	3.0	0.40737040737040736	2454.768392370572	0.07796101949025487	-0.14692653673163417	-0.5697151424287856	
1.6982415445731643E12	6.119565217391304	-0.03260869565217391	9.967391304347826	3.0	0.40737040737040736	2454.768392370572	0.08095952023988005	-0.15592203898050974	-0.5667166416791604	
1.698241544592695E12	6.119565217391304	-0.021739130434782608	9.978260869565217	3.0	0.40737040737040736	2454.768392370572	0.07496251874062969	-0.14692653673163417	-0.568215892053973	
1.6982415446122256E12	6.08695652173913	-0.03260869565217391	9.989130434782608	3.0	0.40737040737040736	2454.768392370572	0.08395802098950525	-0.15442278860569714	-0.5622188905547226	
1.698241544631756E12	6.0978260869565215	0.0	9.945652173913043	3.0	0.40737040737040736	2454.768392370572	0.08545727136431784	-0.17241379310344826	-0.5727136431784108	
1.6982415446512866E12	6.1521739130434785	0.0	9.956521739130434	3.0	0.40737040737040736	2454.768392370572	0.07796101949025487	-0.17391304347826086	-0.5652173913043478	
1.6982415446708174E12	6.1521739130434785	0.021739130434782608	9.978260869565217	3.0	0.40737040737040736	2454.768392370572	0.07796101949025487	-0.15142428785607195	-0.568215892053973	
1.698241544690348E12	6.195652173913043	0.043478260869565216	9.989130434782608	3.0	0.40737040737040736	2454.768392370572	0.07346326836581708	-0.15742128935532235	-0.5712143928035982	
1.6982415447098784E12	6.184782608695652	0.06521739130434782	9.989130434782608	3.0	0.40737040737040736	2454.768392370572	0.07496251874062969	-0.16041979010494753	-0.5772113943028485	
1.698241544729409E12	6.206521739130435	0.07608695652173914	10.01086956521739	3.0	0.40737040737040736	2454.768392370572	0.08095952023988005	-0.16041979010494753	-0.5757121439280359	
1.6982415447489397E12	6.1521739130434785	0.06521739130434782	10.021739130434783	3.0	0.40737040737040736	2454.768392370572	0.08395802098950525	-0.1679160419790105	-0.5637181409295352	
1.6982415447684702E12	6.195652173913043	0.05434782608695652	9.989130434782608	3.0	0.40737040737040736	2454.768392370572	0.08395802098950525	-0.1454272863568216	-0.5697151424287856	
1.6982415447880007E12	6.184782608695652	0.03260869565217391	10.032608695652174	3.0	0.40737040737040736	2454.768392370572	0.07946026986506746	-0.16941529235382308	-0.568215892053973	
1.6982415448075312E12	6.1521739130434785	-0.010869565217391304	9.978260869565217	3.0	0.40737040737040736	2454.768392370572	0.07946026986506746	-0.14992503748125938	-0.568215892053973	
1.698241544827062E12	6.108695652173913	-0.043478260869565216	9.989130434782608	3.0	0.40737040737040736	2454.768392370572	0.07646176911544228	-0.15742128935532235	-0.5667166416791604	
1.6982415448465925E12	6.119565217391304	-0.043478260869565216	10.0	3.0	0.40737040737040736	2454.768392370572	0.07196401799100449	-0.15292353823088456	-0.5742128935532234	
1.698241544866123E12	6.119565217391304	-0.06521739130434782	9.967391304347826	3.0	0.40692640692640697	2457.446808510638	0.08245877061469264	-0.15142428785607195	-0.5697151424287856	
1.6982415448856536E12	6.130434782608695	-0.03260869565217391	9.934782608695652	3.0	0.4078144078144078	2452.0958083832334	0.08245877061469264	-0.15592203898050974	-0.5667166416791604	
1.6982415449051843E12	6.130434782608695	-0.021739130434782608	9.945652173913043	3.0	0.40737040737040736	2454.768392370572	0.07946026986506746	-0.15892053973013492	-0.5697151424287856	
1.6982415449247148E12	6.130434782608695	-0.010869565217391304	9.967391304347826	3.0	0.40692640692640697	2457.446808510638	0.08545727136431784	-0.1664167916041979	-0.5757121439280359	
1.6982415449442454E12	6.195652173913043	0.010869565217391304	9.967391304347826	3.0	0.40737040737040736	2454.768392370572	0.08095952023988005	-0.16041979010494753	-0.568215892053973	
1.698241544963776E12	6.163043478260869	0.06521739130434782	10.0	3.0	0.40737040737040736	2454.768392370572	0.07946026986506746	-0.16041979010494753	-0.5577211394302848	
1.6982415449833066E12	6.163043478260869	0.07608695652173914	10.0	3.0	0.40692640692640697	2457.446808510638	0.07346326836581708	-0.1679160419790105	-0.5742128935532234	
1.6982415450028372E12	6.228260869565217	0.08695652173913043	9.989130434782608	3.0	0.40692640692640697	2457.446808510638	0.08095952023988005	-0.15742128935532235	-0.5817091454272864	
1.6982415450223677E12	6.141304347826087	0.08695652173913043	10.01086956521739	3.0	0.40692640692640697	2457.446808510638	0.0704647676161919	-0.1619190404797601	-0.5727136431784108	
1.6982415450418982E12	6.195652173913043	0.05434782608695652	10.01086956521739	3.0	0.40692640692640697	2457.446808510638	0.08395802098950525	-0.15742128935532235	-0.5727136431784108	
1.698241545061429E12	6.173913043478261	-0.021739130434782608	9.989130434782608	3.0	0.40737040737040736	2454.768392370572	0.07946026986506746	-0.17691154422788605	-0.5772113943028485	
1.6982415450809595E12	6.119565217391304	0.0	9.978260869565217	3.0	0.40692640692640697	2457.446808510638	0.07946026986506746	-0.16041979010494753	-0.5652173913043478	
1.69824154510049E12	6.119565217391304	-0.05434782608695652	10.01086956521739	3.0	0.40692640692640697	2457.446808510638	0.07196401799100449	-0.15142428785607195	-0.5697151424287856	
1.6982415451200205E12	6.119565217391304	-0.03260869565217391	9.989130434782608	3.0	0.40692640692640697	2457.446808510638	0.07196401799100449	-0.1454272863568216	-0.5772113943028485	
1.6982415451395513E12	6.0978260869565215	-0.043478260869565216	9.978260869565217	3.0	0.40692640692640697	2457.446808510638	0.07796101949025487	-0.17391304347826086	-0.5757121439280359	
1.6982415451590818E12	6.1521739130434785	0.0	10.01086956521739	3.0	0.40648240648240647	2460.1310759148005	0.07196401799100449	-0.1649175412293853	-0.5652173913043478	
1.6982415451786123E12	6.108695652173913	-0.05434782608695652	9.978260869565217	3.0	0.40692640692640697	2457.446808510638	0.06596701649175413	-0.1649175412293853	-0.5772113943028485	
1.698241545198143E12	6.119565217391304	-0.05434782608695652	9.945652173913043	3.0	0.40692640692640697	2457.446808510638	0.07646176911544228	-0.1664167916041979	-0.5667166416791604	
1.6982415452176736E12	6.130434782608695	-0.07608695652173914	9.934782608695652	3.0	0.40648240648240647	2460.1310759148005	0.08845577211394302	-0.15592203898050974	-0.5757121439280359	
1.698241545237204E12	6.108695652173913	-0.05434782608695652	9.967391304347826	3.0	0.40648240648240647	2460.1310759148005	0.08095952023988005	-0.15742128935532235	-0.5817091454272864	
1.6982415452567346E12	6.108695652173913	-0.05434782608695652	9.989130434782608	3.0	0.40692640692640697	2457.446808510638	0.07196401799100449	-0.17091454272863568	-0.5742128935532234	
1.6982415452762654E12	6.108695652173913	-0.03260869565217391	9.956521739130434	3.0	0.40648240648240647	2460.1310759148005	0.08245877061469264	-0.15892053973013492	-0.56071964017991	
1.698241545295796E12	6.119565217391304	-0.021739130434782608	9.989130434782608	3.0	0.40692640692640697	2457.446808510638	0.08095952023988005	-0.13793103448275862	-0.568215892053973	
1.6982415453153264E12	6.141304347826087	-0.010869565217391304	9.989130434782608	3.0	0.4060384060384061	2462.8212137780206	0.07646176911544228	-0.16941529235382308	-0.5757121439280359	
1.698241545334857E12	6.108695652173913	0.0	10.01086956521739	3.0	0.40648240648240647	2460.1310759148005	0.08095952023988005	-0.15892053973013492	-0.5712143928035982	
1.6982415453543877E12	6.108695652173913	-0.05434782608695652	9.989130434782608	3.0	0.40648240648240647	2460.1310759148005	0.07796101949025487	-0.15442278860569714	-0.5772113943028485	
1.6982415453739182E12	6.076086956521739	-0.043478260869565216	9.967391304347826	3.0	0.4060384060384061	2462.8212137780206	0.08245877061469264	-0.15592203898050974	-0.5742128935532234	
1.6982415453934487E12	6.0978260869565215	-0.021739130434782608	9.967391304347826	3.0	0.40648240648240647	2460.1310759148005	0.07346326836581708	-0.1634182908545727	-0.5742128935532234	
1.6982415454129792E12	6.108695652173913	-0.03260869565217391	10.0	3.0	0.4060384060384061	2462.8212137780206	0.08845577211394302	-0.15892053973013492	-0.5787106446776612	
1.69824154543251E12	6.119565217391304	-0.021739130434782608	10.021739130434783	3.0	0.40648240648240647	2460.1310759148005	0.07946026986506746	-0.1679160419790105	-0.5712143928035982	
1.6982415454520405E12	6.0978260869565215	-0.010869565217391304	10.043478260869565	3.0	0.4060384060384061	2462.8212137780206	0.08395802098950525	-0.1649175412293853	-0.5712143928035982	
1.698241545471571E12	6.119565217391304	0.010869565217391304	10.021739130434783	3.0	0.4055944055944056	2465.5172413793102	0.07946026986506746	-0.14392803598200898	-0.5742128935532234	
1.6982415454911016E12	6.0978260869565215	-0.043478260869565216	9.967391304347826	3.0	0.4060384060384061	2462.8212137780206	0.08095952023988005	-0.1454272863568216	-0.568215892053973	
1.6982415455106323E12	6.08695652173913	-0.07608695652173914	10.054347826086957	3.0	0.4060384060384061	2462.8212137780206	0.08095952023988005	-0.1679160419790105	-0.5652173913043478	
1.6982415455301628E12	6.032608695652174	-0.05434782608695652	10.01086956521739	3.0	0.4055944055944056	2465.5172413793102	0.07946026986506746	-0.1664167916041979	-0.5712143928035982	
1.6982415455496934E12	6.0	-0.05434782608695652	10.0	3.0	0.4060384060384061	2462.8212137780206	0.07796101949025487	-0.15142428785607195	-0.5757121439280359	
1.6982415455692239E12	6.010869565217392	-0.06521739130434782	10.032608695652174	3.0	0.4060384060384061	2462.8212137780206	0.07646176911544228	-0.15742128935532235	-0.5787106446776612	
1.6982415455887546E12	6.043478260869565	-0.07608695652173914	10.032608695652174	3.0	0.4060384060384061	2462.8212137780206	0.07946026986506746	-0.14392803598200898	-0.5787106446776612	
1.6982415456082852E12	6.108695652173913	-0.07608695652173914	10.01086956521739	3.0	0.4055944055944056	2465.5172413793102	0.08245877061469264	-0.15742128935532235	-0.5667166416791604	
1.6982415456278157E12	6.141304347826087	-0.08695652173913043	10.01086956521739	3.0	0.4055944055944056	2465.5172413793102	0.07646176911544228	-0.17091454272863568	-0.5697151424287856	
1.6982415456473462E12	6.119565217391304	-0.05434782608695652	9.967391304347826	3.0	0.4055944055944056	2465.5172413793102	0.07646176911544228	-0.14392803598200898	-0.5787106446776612	
1.698241545666877E12	6.0978260869565215	-0.05434782608695652	9.967391304347826	3.0	0.4055944055944056	2465.5172413793102	0.07196401799100449	-0.15892053973013492	-0.5742128935532234	
1.6982415456864075E12	6.130434782608695	-0.10869565217391304	10.043478260869565	3.0	0.4055944055944056	2465.5172413793102	0.07646176911544228	-0.14392803598200898	-0.5652173913043478	
1.698241545705938E12	6.108695652173913	-0.08695652173913043	10.065217391304348	3.0	0.4051504051504052	2468.2191780821913	0.07946026986506746	-0.15142428785607195	-0.5637181409295352	
1.6982415457254685E12	6.065217391304348	-0.05434782608695652	9.945652173913043	3.0	0.4051504051504052	2468.2191780821913	0.07646176911544228	-0.14842578710644677	-0.5727136431784108	
1.6982415457449993E12	6.0978260869565215	-0.07608695652173914	9.902173913043478	3.0	0.4051504051504052	2468.2191780821913	0.07946026986506746	-0.1649175412293853	-0.5622188905547226	
1.6982415457645298E12	6.163043478260869	-0.021739130434782608	9.956521739130434	3.0	0.40470640470640473	2470.9270433351617	0.07346326836581708	-0.16941529235382308	-0.5757121439280359	
1.6982415457840603E12	6.0978260869565215	-0.010869565217391304	9.978260869565217	3.0	0.40470640470640473	2470.9270433351617	0.07946026986506746	-0.14992503748125938	-0.5652173913043478	
1.6982415458035908E12	6.08695652173913	0.03260869565217391	10.01086956521739	3.0	0.4051504051504052	2468.2191780821913	0.08695652173913043	-0.15292353823088456	-0.5742128935532234	
1.6982415458231216E12	6.130434782608695	-0.043478260869565216	10.0	3.0	0.4051504051504052	2468.2191780821913	0.07196401799100449	-0.14392803598200898	-0.5622188905547226	
1.698241545842652E12	6.08695652173913	-0.043478260869565216	9.978260869565217	3.0	0.40470640470640473	2470.9270433351617	0.07796101949025487	-0.14392803598200898	-0.5787106446776612	
1.6982415458621826E12	6.108695652173913	-0.05434782608695652	9.934782608695652	3.0	0.40470640470640473	2470.9270433351617	0.07646176911544228	-0.15592203898050974	-0.5712143928035982	
1.6982415458817131E12	6.0978260869565215	-0.05434782608695652	9.967391304347826	3.0	0.4051504051504052	2468.2191780821913	0.07946026986506746	-0.15442278860569714	-0.5832083958020989	
1.698241545901244E12	6.0978260869565215	-0.06521739130434782	10.0	3.0	0.40470640470640473	2470.9270433351617	0.07796101949025487	-0.13793103448275862	-0.5697151424287856	
1.6982415459207744E12	6.108695652173913	-0.07608695652173914	10.032608695652174	3.0	0.4042624042624043	2473.640856672158	0.08845577211394302	-0.15742128935532235	-0.5712143928035982	
1.698241545940305E12	6.054347826086956	-0.07608695652173914	10.01086956521739	3.0	0.40470640470640473	2470.9270433351617	0.07196401799100449	-0.14992503748125938	-0.568215892053973	
1.6982415459598354E12	6.076086956521739	-0.10869565217391304	10.0	3.0	0.40470640470640473	2470.9270433351617	0.07496251874062969	-0.15592203898050974	-0.5712143928035982	
1.6982415459793662E12	6.065217391304348	-0.10869565217391304	10.0	3.0	0.40470640470640473	2470.9270433351617	0.07796101949025487	-0.15292353823088456	-0.5742128935532234	
1.6982415459988967E12	6.08695652173913	-0.10869565217391304	10.0	3.0	0.4042624042624043	2473.640856672158	0.07496251874062969	-0.14842578710644677	-0.5757121439280359	
1.6982415460184272E12	6.076086956521739	-0.10869565217391304	9.967391304347826	3.0	0.4042624042624043	2473.640856672158	0.07946026986506746	-0.15292353823088456	-0.5727136431784108	
1.6982415460379578E12	6.043478260869565	-0.10869565217391304	10.0	3.0	0.4042624042624043	2473.640856672158	0.07646176911544228	-0.15292353823088456	-0.56071964017991	
1.6982415460574885E12	6.0978260869565215	-0.13043478260869565	10.0	3.0	0.40470640470640473	2470.9270433351617	0.08245877061469264	-0.15742128935532235	-0.5757121439280359	
1.698241546077019E12	6.08695652173913	-0.14130434782608695	9.967391304347826	3.0	0.40470640470640473	2470.9270433351617	0.07946026986506746	-0.15292353823088456	-0.5727136431784108	
1.6982415460965496E12	6.076086956521739	-0.08695652173913043	9.945652173913043	3.0	0.40470640470640473	2470.9270433351617	0.07946026986506746	-0.15292353823088456	-0.5712143928035982	
1.69824154611608E12	6.054347826086956	-0.10869565217391304	9.956521739130434	3.0	0.40470640470640473	2470.9270433351617	0.08845577211394302	-0.1454272863568216	-0.5727136431784108	
1.6982415461356108E12	6.054347826086956	-0.08695652173913043	9.967391304347826	3.0	0.40470640470640473	2470.9270433351617	0.07496251874062969	-0.14992503748125938	-0.5697151424287856	
1.6982415461551414E12	6.08695652173913	-0.09782608695652173	10.021739130434783	3.0	0.40470640470640473	2470.9270433351617	0.07796101949025487	-0.16041979010494753	-0.5727136431784108	
1.6982415461746719E12	6.054347826086956	-0.07608695652173914	9.989130434782608	3.0	0.40470640470640473	2470.9270433351617	0.08095952023988005	-0.15742128935532235	-0.5697151424287856	
1.6982415461942024E12	6.08695652173913	-0.05434782608695652	9.989130434782608	3.0	0.4051504051504052	2468.2191780821913	0.07796101949025487	-0.15442278860569714	-0.5712143928035982	
1.6982415462137332E12	6.108695652173913	-0.08695652173913043	9.978260869565217	3.0	0.40470640470640473	2470.9270433351617	0.08545727136431784	-0.15442278860569714	-0.5712143928035982	
1.6982415462332637E12	6.076086956521739	-0.09782608695652173	9.989130434782608	3.0	0.40470640470640473	2470.9270433351617	0.07346326836581708	-0.15592203898050974	-0.5697151424287856	
1.6982415462527942E12	6.076086956521739	-0.08695652173913043	10.021739130434783	3.0	0.40470640470640473	2470.9270433351617	0.07346326836581708	-0.15742128935532235	-0.568215892053973	
1.6982415462723247E12	6.08695652173913	-0.08695652173913043	10.021739130434783	3.0	0.40470640470640473	2470.9270433351617	0.07946026986506746	-0.15142428785607195	-0.5652173913043478	
1.6982415462918555E12	6.08695652173913	-0.08695652173913043	9.967391304347826	3.0	0.4051504051504052	2468.2191780821913	0.07496251874062969	-0.14692653673163417	-0.5697151424287856	
1.698241546311386E12	6.119565217391304	-0.07608695652173914	10.0	3.0	0.40470640470640473	2470.9270433351617	0.0704647676161919	-0.1649175412293853	-0.5772113943028485	
1.6982415463309165E12	6.065217391304348	-0.10869565217391304	9.978260869565217	3.0	0.4051504051504052	2468.2191780821913	0.07646176911544228	-0.14842578710644677	-0.5757121439280359	
1.698241546350447E12	6.076086956521739	-0.11956521739130435	10.0	3.0	0.40470640470640473	2470.9270433351617	0.07346326836581708	-0.15742128935532235	-0.5757121439280359	
1.6982415463699778E12	6.076086956521739	-0.08695652173913043	9.989130434782608	3.0	0.40470640470640473	2470.9270433351617	0.07346326836581708	-0.1454272863568216	-0.5697151424287856	
1.6982415463895083E12	6.076086956521739	-0.11956521739130435	9.978260869565217	3.0	0.40470640470640473	2470.9270433351617	0.07646176911544228	-0.15892053973013492	-0.5772113943028485	
1.6982415464090388E12	6.0978260869565215	-0.11956521739130435	9.989130434782608	3.0	0.40470640470640473	2470.9270433351617	0.07346326836581708	-0.1394302848575712	-0.5697151424287856	
1.6982415464285693E12	6.076086956521739	-0.09782608695652173	9.978260869565217	3.0	0.40470640470640473	2470.9270433351617	0.07946026986506746	-0.15592203898050974	-0.5697151424287856	
1.6982415464481E12	6.108695652173913	-0.07608695652173914	9.967391304347826	3.0	0.40470640470640473	2470.9270433351617	0.07946026986506746	-0.14842578710644677	-0.5652173913043478	
1.6982415464676306E12	6.141304347826087	-0.09782608695652173	9.978260869565217	3.0	0.40470640470640473	2470.9270433351617	0.07796101949025487	-0.1394302848575712	-0.5712143928035982	
1.6982415464871611E12	6.0978260869565215	-0.10869565217391304	9.967391304347826	3.0	0.4051504051504052	2468.2191780821913	0.07796101949025487	-0.15742128935532235	-0.5727136431784108	
1.6982415465066917E12	6.119565217391304	-0.09782608695652173	10.0	3.0	0.4051504051504052	2468.2191780821913	0.08545727136431784	-0.15592203898050974	-0.5697151424287856	
1.6982415465262224E12	6.108695652173913	-0.07608695652173914	9.978260869565217	3.0	0.4051504051504052	2468.2191780821913	0.07496251874062969	-0.1649175412293853	-0.5847076461769115	
1.698241546545753E12	6.0978260869565215	-0.10869565217391304	9.967391304347826	3.0	0.4051504051504052	2468.2191780821913	0.07796101949025487	-0.1664167916041979	-0.5652173913043478	
1.6982415465652834E12	6.130434782608695	-0.06521739130434782	9.978260869565217	3.0	0.40470640470640473	2470.9270433351617	0.07496251874062969	-0.15292353823088456	-0.5697151424287856	
1.698241546584814E12	6.130434782608695	-0.07608695652173914	10.021739130434783	3.0	0.4051504051504052	2468.2191780821913	0.08245877061469264	-0.15292353823088456	-0.5802098950524738	
1.6982415466043447E12	6.076086956521739	-0.06521739130434782	10.0	3.0	0.4051504051504052	2468.2191780821913	0.08245877061469264	-0.1664167916041979	-0.5697151424287856	
1.6982415466238752E12	6.0978260869565215	-0.06521739130434782	9.989130434782608	3.0	0.40470640470640473	2470.9270433351617	0.07346326836581708	-0.17241379310344826	-0.5787106446776612	
1.6982415466434058E12	6.0978260869565215	-0.09782608695652173	9.989130434782608	3.0	0.40470640470640473	2470.9270433351617	0.07796101949025487	-0.15742128935532235	-0.5772113943028485	
1.6982415466629363E12	6.0978260869565215	-0.08695652173913043	9.967391304347826	3.0	0.4051504051504052	2468.2191780821913	0.07946026986506746	-0.1619190404797601	-0.5742128935532234	
1.698241546682467E12	6.119565217391304	-0.06521739130434782	9.989130434782608	3.0	0.4051504051504052	2468.2191780821913	0.08545727136431784	-0.1634182908545727	-0.5832083958020989	
1.6982415467019976E12	6.141304347826087	-0.03260869565217391	10.032608695652174	3.0	0.4051504051504052	2468.2191780821913	0.07496251874062969	-0.13793103448275862	-0.5742128935532234	
1.698241546721528E12	6.163043478260869	-0.06521739130434782	10.01086956521739	3.0	0.40470640470640473	2470.9270433351617	0.07346326836581708	-0.15892053973013492	-0.5757121439280359	
1.6982415467410586E12	6.130434782608695	-0.08695652173913043	9.978260869565217	3.0	0.4051504051504052	2468.2191780821913	0.07496251874062969	-0.1664167916041979	-0.5667166416791604	
1.6982415467605894E12	6.08695652173913	-0.08695652173913043	9.978260869565217	3.0	0.4051504051504052	2468.2191780821913	0.07796101949025487	-0.15442278860569714	-0.5742128935532234	
1.6982415467801199E12	6.0978260869565215	-0.10869565217391304	10.0	3.0	0.4051504051504052	2468.2191780821913	0.07346326836581708	-0.1424287856071964	-0.5847076461769115	
1.6982415467996504E12	6.108695652173913	-0.06521739130434782	9.989130434782608	3.0	0.4051504051504052	2468.2191780821913	0.07346326836581708	-0.14692653673163417	-0.5742128935532234	
1.698241546819181E12	6.173913043478261	-0.06521739130434782	9.956521739130434	3.0	0.4051504051504052	2468.2191780821913	0.08545727136431784	-0.15892053973013492	-0.568215892053973	
1.6982415468387117E12	6.1521739130434785	-0.06521739130434782	9.967391304347826	3.0	0.4051504051504052	2468.2191780821913	0.07196401799100449	-0.15292353823088456	-0.5652173913043478	
1.6982415468582422E12	6.130434782608695	-0.09782608695652173	9.989130434782608	3.0	0.4051504051504052	2468.2191780821913	0.08095952023988005	-0.15892053973013492	-0.5712143928035982	
1.6982415468777727E12	6.195652173913043	-0.043478260869565216	9.989130434782608	3.0	0.4051504051504052	2468.2191780821913	0.07946026986506746	-0.1634182908545727	-0.5757121439280359	
1.6982415468973032E12	6.130434782608695	-0.07608695652173914	9.967391304347826	3.0	0.4055944055944056	2465.5172413793102	0.06746626686656672	-0.15742128935532235	-0.5742128935532234	
1.698241546916834E12	6.130434782608695	-0.06521739130434782	9.945652173913043	3.0	0.4055944055944056	2465.5172413793102	0.06896551724137931	-0.1454272863568216	-0.5697151424287856	
1.6982415469363645E12	6.141304347826087	-0.06521739130434782	9.989130434782608	3.0	0.40470640470640473	2470.9270433351617	0.07796101949025487	-0.16941529235382308	-0.568215892053973	
1.698241546955895E12	6.163043478260869	-0.06521739130434782	9.978260869565217	3.0	0.4051504051504052	2468.2191780821913	0.07946026986506746	-0.15592203898050974	-0.5697151424287856	
1.6982415469754255E12	6.141304347826087	-0.021739130434782608	9.978260869565217	3.0	0.4051504051504052	2468.2191780821913	0.08395802098950525	-0.15592203898050974	-0.5697151424287856	
1.6982415469949563E12	6.195652173913043	-0.043478260869565216	9.967391304347826	3.0	0.4055944055944056	2465.5172413793102	0.08545727136431784	-0.14692653673163417	-0.5802098950524738	
1.6982415470144868E12	6.141304347826087	-0.043478260869565216	9.956521739130434	3.0	0.4055944055944056	2465.5172413793102	0.06896551724137931	-0.16041979010494753	-0.5592203898050975	
1.6982415470340173E12	6.217391304347826	-0.03260869565217391	10.01086956521739	3.0	0.4051504051504052	2468.2191780821913	0.08095952023988005	-0.15742128935532235	-0.568215892053973	
1.698241547053548E12	6.141304347826087	-0.03260869565217391	10.01086956521739	3.0	0.4055944055944056	2465.5172413793102	0.07796101949025487	-0.16941529235382308	-0.5697151424287856	
1.6982415470730786E12	6.163043478260869	-0.03260869565217391	9.967391304347826	3.0	0.4060384060384061	2462.8212137780206	0.07646176911544228	-0.15892053973013492	-0.5697151424287856	
1.6982415470926091E12	6.173913043478261	-0.06521739130434782	9.967391304347826	3.0	0.4055944055944056	2465.5172413793102	0.08395802098950525	-0.1619190404797601	-0.5727136431784108	
1.6982415471121396E12	6.1521739130434785	-0.021739130434782608	9.934782608695652	3.0	0.4060384060384061	2462.8212137780206	0.07496251874062969	-0.1649175412293853	-0.5727136431784108	
1.6982415471316704E12	6.141304347826087	-0.05434782608695652	9.967391304347826	3.0	0.4060384060384061	2462.8212137780206	0.07646176911544228	-0.15892053973013492	-0.5832083958020989	
1.698241547151201E12	6.1521739130434785	-0.06521739130434782	9.934782608695652	3.0	0.4055944055944056	2465.5172413793102	0.07496251874062969	-0.15892053973013492	-0.5802098950524738	
1.6982415471707314E12	6.119565217391304	-0.06521739130434782	9.945652173913043	3.0	0.4055944055944056	2465.5172413793102	0.07346326836581708	-0.1649175412293853	-0.5847076461769115	
1.698241547190262E12	6.163043478260869	-0.07608695652173914	9.945652173913043	3.0	0.4055944055944056	2465.5172413793102	0.07496251874062969	-0.16941529235382308	-0.568215892053973	
1.6982415472097927E12	6.141304347826087	-0.043478260869565216	9.989130434782608	3.0	0.4055944055944056	2465.5172413793102	0.07496251874062969	-0.1664167916041979	-0.5712143928035982	
1.6982415472293232E12	6.163043478260869	-0.06521739130434782	9.967391304347826	3.0	0.4055944055944056	2465.5172413793102	0.07196401799100449	-0.15742128935532235	-0.5727136431784108	
1.6982415472488538E12	6.163043478260869	-0.010869565217391304	9.967391304347826	3.0	0.4055944055944056	2465.5172413793102	0.07946026986506746	-0.16041979010494753	-0.5787106446776612	
1.6982415472683843E12	6.184782608695652	-0.010869565217391304	9.978260869565217	3.0	0.4055944055944056	2465.5172413793102	0.08245877061469264	-0.14992503748125938	-0.5742128935532234	
1.698241547287915E12	6.195652173913043	-0.010869565217391304	9.967391304347826	3.0	0.4055944055944056	2465.5172413793102	0.07796101949025487	-0.1664167916041979	-0.5652173913043478	
1.6982415473074456E12	6.173913043478261	-0.010869565217391304	9.978260869565217	3.0	0.4055944055944056	2465.5172413793102	0.06596701649175413	-0.15742128935532235	-0.568215892053973	
1.698241547326976E12	6.163043478260869	-0.043478260869565216	9.989130434782608	3.0	0.4055944055944056	2465.5172413793102	0.0704647676161919	-0.15892053973013492	-0.5787106446776612	
1.6982415473465066E12	6.184782608695652	-0.05434782608695652	9.934782608695652	3.0	0.4055944055944056	2465.5172413793102	0.08095952023988005	-0.15892053973013492	-0.5757121439280359	
1.6982415473660374E12	6.141304347826087	-0.043478260869565216	9.945652173913043	3.0	0.4055944055944056	2465.5172413793102	0.08545727136431784	-0.16041979010494753	-0.5637181409295352	
1.6982415473855679E12	6.173913043478261	-0.05434782608695652	9.934782608695652	3.0	0.4055944055944056	2465.5172413793102	0.08695652173913043	-0.15442278860569714	-0.5772113943028485	
1.6982415474050984E12	6.1521739130434785	-0.010869565217391304	9.945652173913043	3.0	0.4055944055944056	2465.5172413793102	0.07496251874062969	-0.14842578710644677	-0.5712143928035982	
1.698241547424629E12	6.217391304347826	-0.043478260869565216	9.956521739130434	3.0	0.4055944055944056	2465.5172413793102	0.07196401799100449	-0.15592203898050974	-0.5757121439280359	
1.6982415474441597E12	6.239130434782608	-0.021739130434782608	9.945652173913043	3.0	0.4060384060384061	2462.8212137780206	0.07346326836581708	-0.1649175412293853	-0.568215892053973	
1.6982415474636902E12	6.228260869565217	-0.043478260869565216	9.956521739130434	3.0	0.4055944055944056	2465.5172413793102	0.08095952023988005	-0.1679160419790105	-0.5757121439280359	
1.6982415474832207E12	6.206521739130435	-0.021739130434782608	9.967391304347826	3.0	0.4055944055944056	2465.5172413793102	0.07196401799100449	-0.15592203898050974	-0.5637181409295352	
1.6982415475027512E12	6.195652173913043	-0.010869565217391304	9.967391304347826	3.0	0.4055944055944056	2465.5172413793102	0.05697151424287856	-0.1649175412293853	-0.5772113943028485	
1.698241547522282E12	6.206521739130435	-0.010869565217391304	9.967391304347826	3.0	0.4060384060384061	2462.8212137780206	0.06896551724137931	-0.16041979010494753	-0.568215892053973	
1.6982415475418125E12	6.206521739130435	-0.010869565217391304	9.967391304347826	3.0	0.4060384060384061	2462.8212137780206	0.06896551724137931	-0.15142428785607195	-0.5697151424287856	
1.698241547561343E12	6.228260869565217	-0.021739130434782608	9.956521739130434	3.0	0.4055944055944056	2465.5172413793102	0.0704647676161919	-0.1409295352323838	-0.5637181409295352	
1.6982415475808735E12	6.184782608695652	-0.010869565217391304	9.956521739130434	3.0	0.4060384060384061	2462.8212137780206	0.07196401799100449	-0.17091454272863568	-0.5772113943028485	
1.6982415476004043E12	6.173913043478261	0.0	10.0	3.0	0.4060384060384061	2462.8212137780206	0.07646176911544228	-0.15892053973013492	-0.5637181409295352	
1.6982415476199348E12	6.163043478260869	-0.021739130434782608	9.956521739130434	3.0	0.4060384060384061	2462.8212137780206	0.06746626686656672	-0.15292353823088456	-0.568215892053973	
1.6982415476394653E12	6.163043478260869	-0.021739130434782608	9.956521739130434	3.0	0.4060384060384061	2462.8212137780206	0.0704647676161919	-0.1649175412293853	-0.5652173913043478	
1.6982415476589958E12	6.163043478260869	-0.03260869565217391	9.978260869565217	3.0	0.4060384060384061	2462.8212137780206	0.06446776611694152	-0.1619190404797601	-0.5742128935532234	
1.6982415476785266E12	6.206521739130435	-0.05434782608695652	9.978260869565217	3.0	0.40648240648240647	2460.1310759148005	0.07346326836581708	-0.16041979010494753	-0.568215892053973	
1.6982415476980571E12	6.195652173913043	-0.05434782608695652	9.978260869565217	3.0	0.40648240648240647	2460.1310759148005	0.07346326836581708	-0.17241379310344826	-0.5652173913043478	
1.6982415477175876E12	6.206521739130435	-0.06521739130434782	9.934782608695652	3.0	0.40648240648240647	2460.1310759148005	0.07496251874062969	-0.14842578710644677	-0.5727136431784108	
1.6982415477371182E12	6.195652173913043	-0.021739130434782608	9.945652173913043	3.0	0.40648240648240647	2460.1310759148005	0.06596701649175413	-0.16041979010494753	-0.5727136431784108	
1.698241547756649E12	6.184782608695652	-0.03260869565217391	9.945652173913043	3.0	0.40692640692640697	2457.446808510638	0.06746626686656672	-0.1664167916041979	-0.5772113943028485	
1.6982415477761794E12	6.163043478260869	-0.021739130434782608	9.978260869565217	3.0	0.40692640692640697	2457.446808510638	0.08095952023988005	-0.1649175412293853	-0.5712143928035982	
1.69824154779571E12	6.184782608695652	-0.05434782608695652	9.92391304347826	3.0	0.40648240648240647	2460.1310759148005	0.07496251874062969	-0.15892053973013492	-0.5667166416791604	
1.6982415478152405E12	6.195652173913043	-0.03260869565217391	9.945652173913043	3.0	0.40692640692640697	2457.446808510638	0.06746626686656672	-0.1649175412293853	-0.5727136431784108	
1.6982415478347712E12	6.206521739130435	-0.010869565217391304	9.934782608695652	3.0	0.40692640692640697	2457.446808510638	0.06896551724137931	-0.1649175412293853	-0.5637181409295352	
1.6982415478543018E12	6.228260869565217	-0.010869565217391304	9.934782608695652	3.0	0.40692640692640697	2457.446808510638	0.07646176911544228	-0.14992503748125938	-0.568215892053973	
1.6982415478738323E12	6.195652173913043	-0.03260869565217391	9.978260869565217	3.0	0.40692640692640697	2457.446808510638	0.07346326836581708	-0.1634182908545727	-0.5652173913043478	
1.6982415478933628E12	6.195652173913043	-0.021739130434782608	9.956521739130434	3.0	0.40737040737040736	2454.768392370572	0.06596701649175413	-0.15142428785607195	-0.5757121439280359	
1.6982415479128936E12	6.25	-0.010869565217391304	9.967391304347826	3.0	0.40737040737040736	2454.768392370572	0.07196401799100449	-0.1619190404797601	-0.5652173913043478	
1.698241547932424E12	6.184782608695652	-0.021739130434782608	9.967391304347826	3.0	0.40737040737040736	2454.768392370572	0.07946026986506746	-0.15742128935532235	-0.5787106446776612	
1.6982415479519546E12	6.195652173913043	-0.03260869565217391	9.978260869565217	3.0	0.4078144078144078	2452.0958083832334	0.07496251874062969	-0.16041979010494753	-0.5772113943028485	
1.698241547971485E12	6.163043478260869	-0.03260869565217391	9.967391304347826	3.0	0.40737040737040736	2454.768392370572	0.06746626686656672	-0.14842578710644677	-0.5697151424287856	
1.6982415479910159E12	6.195652173913043	-0.021739130434782608	9.934782608695652	3.0	0.4082584082584083	2449.4290375203914	0.0704647676161919	-0.15292353823088456	-0.5757121439280359	
1.6982415480105464E12	6.217391304347826	-0.03260869565217391	9.956521739130434	3.0	0.4082584082584083	2449.4290375203914	0.07496251874062969	-0.1454272863568216	-0.5622188905547226	
1.698241548030077E12	6.217391304347826	0.0	9.956521739130434	3.0	0.4082584082584083	2449.4290375203914	0.06596701649175413	-0.1664167916041979	-0.5697151424287856	
1.6982415480496074E12	6.206521739130435	0.010869565217391304	9.956521739130434	3.0	0.4082584082584083	2449.4290375203914	0.07796101949025487	-0.15892053973013492	-0.5652173913043478	
1.6982415480691382E12	6.260869565217391	0.03260869565217391	9.967391304347826	3.0	0.4082584082584083	2449.4290375203914	0.07346326836581708	-0.1619190404797601	-0.5727136431784108	
1.6982415480886687E12	6.25	-0.010869565217391304	9.945652173913043	3.0	0.4087024087024087	2446.7680608365017	0.07196401799100449	-0.1664167916041979	-0.5742128935532234	
1.6982415481081992E12	6.195652173913043	-0.010869565217391304	9.934782608695652	3.0	0.4082584082584083	2449.4290375203914	0.0704647676161919	-0.1619190404797601	-0.5772113943028485	
1.6982415481277297E12	6.228260869565217	-0.010869565217391304	9.92391304347826	3.0	0.4082584082584083	2449.4290375203914	0.07796101949025487	-0.15442278860569714	-0.5742128935532234	
1.6982415481472605E12	6.239130434782608	-0.021739130434782608	9.967391304347826	3.0	0.4087024087024087	2446.7680608365017	0.07196401799100449	-0.17391304347826086	-0.5742128935532234	
1.698241548166791E12	6.195652173913043	-0.010869565217391304	9.91304347826087	3.0	0.40914640914640915	2444.112859468258	0.07496251874062969	-0.1649175412293853	-0.5652173913043478	
1.6982415481863215E12	6.195652173913043	-0.021739130434782608	9.934782608695652	3.0	0.40914640914640915	2444.112859468258	0.0704647676161919	-0.1664167916041979	-0.5667166416791604	
1.698241548205852E12	6.195652173913043	-0.021739130434782608	9.956521739130434	3.0	0.40914640914640915	2444.112859468258	0.08545727136431784	-0.15142428785607195	-0.5667166416791604	
1.6982415482253828E12	6.25	-0.021739130434782608	9.92391304347826	3.0	0.40914640914640915	2444.112859468258	0.0704647676161919	-0.15892053973013492	-0.5592203898050975	
1.6982415482449133E12	6.228260869565217	-0.03260869565217391	9.934782608695652	3.0	0.41003441003441	2438.819707634001	0.0704647676161919	-0.1619190404797601	-0.5802098950524738	
1.6982415482644438E12	6.163043478260869	-0.06521739130434782	9.934782608695652	3.0	0.4095904095904096	2441.4634146341464	0.07496251874062969	-0.1454272863568216	-0.5592203898050975	
1.6982415482839744E12	6.195652173913043	-0.021739130434782608	9.92391304347826	3.0	0.4095904095904096	2441.4634146341464	0.0704647676161919	-0.1619190404797601	-0.5757121439280359	
1.6982415483035051E12	6.184782608695652	0.010869565217391304	9.956521739130434	3.0	0.4095904095904096	2441.4634146341464	0.07196401799100449	-0.14842578710644677	-0.568215892053973	
1.6982415483230356E12	6.228260869565217	0.03260869565217391	9.956521739130434	3.0	0.41003441003441	2438.819707634001	0.06446776611694152	-0.14992503748125938	-0.5712143928035982	
1.6982415483425662E12	6.25	0.010869565217391304	9.945652173913043	3.0	0.41003441003441	2438.819707634001	0.07196401799100449	-0.15292353823088456	-0.5712143928035982	
1.6982415483620967E12	6.271739130434782	0.021739130434782608	9.934782608695652	3.0	0.4104784104784105	2436.1817198485664	0.07646176911544228	-0.15292353823088456	-0.5622188905547226	
1.6982415483816274E12	6.260869565217391	0.021739130434782608	9.91304347826087	3.0	0.4104784104784105	2436.1817198485664	0.06896551724137931	-0.17241379310344826	-0.5697151424287856	
1.698241548401158E12	6.228260869565217	0.021739130434782608	9.92391304347826	3.0	0.410922410922411	2433.5494327390597	0.07946026986506746	-0.15892053973013492	-0.5697151424287856	
1.6982415484206885E12	6.25	-0.021739130434782608	9.91304347826087	3.0	0.4104784104784105	2436.1817198485664	0.07646176911544228	-0.1454272863568216	-0.5787106446776612	
1.698241548440219E12	6.25	0.0	9.92391304347826	3.0	0.410922410922411	2433.5494327390597	0.07796101949025487	-0.1679160419790105	-0.5667166416791604	
1.6982415484597498E12	6.282608695652174	-0.021739130434782608	9.945652173913043	3.0	0.410922410922411	2433.5494327390597	0.0704647676161919	-0.15142428785607195	-0.5727136431784108	
1.6982415484792803E12	6.195652173913043	-0.010869565217391304	9.945652173913043	3.0	0.4113664113664114	2430.922827846735	0.07196401799100449	-0.15592203898050974	-0.568215892053973	
1.6982415484988108E12	6.195652173913043	-0.021739130434782608	9.956521739130434	3.0	0.4113664113664114	2430.922827846735	0.06746626686656672	-0.16041979010494753	-0.568215892053973	
1.6982415485183413E12	6.206521739130435	-0.043478260869565216	9.945652173913043	3.0	0.41181041181041184	2428.301886792453	0.06896551724137931	-0.14992503748125938	-0.5637181409295352	
1.698241548537872E12	6.217391304347826	0.0	9.945652173913043	3.0	0.4113664113664114	2430.922827846735	0.07646176911544228	-0.1649175412293853	-0.5667166416791604	
1.6982415485574026E12	6.206521739130435	-0.03260869565217391	9.956521739130434	3.0	0.4122544122544123	2425.686591276252	0.07346326836581708	-0.15142428785607195	-0.56071964017991	
1.698241548576933E12	6.228260869565217	-0.010869565217391304	9.967391304347826	3.0	0.41181041181041184	2428.301886792453	0.0704647676161919	-0.14842578710644677	-0.5637181409295352	
1.6982415485964636E12	6.239130434782608	-0.010869565217391304	9.978260869565217	3.0	0.41181041181041184	2428.301886792453	0.07346326836581708	-0.1619190404797601	-0.5652173913043478	
1.6982415486159944E12	6.228260869565217	-0.010869565217391304	9.92391304347826	3.0	0.4122544122544123	2425.686591276252	0.0704647676161919	-0.15442278860569714	-0.5652173913043478	
1.698241548635525E12	6.228260869565217	-0.021739130434782608	9.902173913043478	3.0	0.41269841269841273	2423.076923076923	0.06896551724137931	-0.1619190404797601	-0.56071964017991	
1.6982415486550554E12	6.239130434782608	-0.021739130434782608	9.91304347826087	3.0	0.4122544122544123	2425.686591276252	0.0704647676161919	-0.15292353823088456	-0.5622188905547226	
1.698241548674586E12	6.228260869565217	-0.010869565217391304	9.945652173913043	3.0	0.41269841269841273	2423.076923076923	0.06896551724137931	-0.15442278860569714	-0.568215892053973	
1.6982415486941167E12	6.239130434782608	0.010869565217391304	9.956521739130434	3.0	0.41269841269841273	2423.076923076923	0.06446776611694152	-0.1424287856071964	-0.553223388305847	
1.6982415487136472E12	6.228260869565217	0.010869565217391304	9.989130434782608	3.0	0.41269841269841273	2423.076923076923	0.06596701649175413	-0.1634182908545727	-0.5667166416791604	
1.6982415487331777E12	6.195652173913043	0.0	9.956521739130434	3.0	0.41269841269841273	2423.076923076923	0.07196401799100449	-0.15592203898050974	-0.5742128935532234	
1.6982415487527083E12	6.239130434782608	-0.010869565217391304	9.956521739130434	3.0	0.41269841269841273	2423.076923076923	0.06896551724137931	-0.15292353823088456	-0.5697151424287856	
1.698241548772239E12	6.228260869565217	-0.03260869565217391	9.956521739130434	3.0	0.4131424131424132	2420.472864051585	0.06146926536731634	-0.15292353823088456	-0.5667166416791604	
1.6982415487917695E12	6.195652173913043	-0.03260869565217391	9.934782608695652	3.0	0.4135864135864136	2417.8743961352657	0.06446776611694152	-0.1619190404797601	-0.5802098950524738	
1.6982415488113E12	6.184782608695652	-0.010869565217391304	9.92391304347826	3.0	0.4131424131424132	2420.472864051585	0.06296851574212893	-0.15142428785607195	-0.5652173913043478	
1.6982415488308306E12	6.239130434782608	-0.05434782608695652	9.869565217391305	3.0	0.4131424131424132	2420.472864051585	0.06296851574212893	-0.15442278860569714	-0.5742128935532234	
1.6982415488503613E12	6.25	-0.05434782608695652	9.945652173913043	3.0	0.4135864135864136	2417.8743961352657	0.06596701649175413	-0.17391304347826086	-0.5622188905547226	
1.6982415488698918E12	6.260869565217391	-0.010869565217391304	9.945652173913043	3.0	0.414030414030414	2415.2815013404825	0.06446776611694152	-0.14992503748125938	-0.5712143928035982	
1.6982415488894224E12	6.239130434782608	0.0	9.934782608695652	3.0	0.4135864135864136	2417.8743961352657	0.07196401799100449	-0.15592203898050974	-0.5712143928035982	
1.6982415489089531E12	6.217391304347826	-0.021739130434782608	9.934782608695652	3.0	0.4135864135864136	2417.8743961352657	0.07196401799100449	-0.14992503748125938	-0.5637181409295352	
1.6982415489284836E12	6.260869565217391	-0.03260869565217391	9.92391304347826	3.0	0.414030414030414	2415.2815013404825	0.0704647676161919	-0.14392803598200898	-0.5667166416791604	
1.6982415489480142E12	6.217391304347826	-0.043478260869565216	9.934782608695652	3.0	0.4144744144744145	2412.694161756829	0.07646176911544228	-0.15292353823088456	-0.5697151424287856	
1.6982415489675447E12	6.228260869565217	-0.043478260869565216	9.945652173913043	3.0	0.4135864135864136	2417.8743961352657	0.07346326836581708	-0.1649175412293853	-0.5802098950524738	
1.6982415489870754E12	6.206521739130435	-0.05434782608695652	9.967391304347826	3.0	0.414030414030414	2415.2815013404825	0.08545727136431784	-0.1634182908545727	-0.5742128935532234	
1.698241549006606E12	6.195652173913043	-0.05434782608695652	9.934782608695652	3.0	0.414030414030414	2415.2815013404825	0.06746626686656672	-0.14992503748125938	-0.56071964017991	
1.6982415490261365E12	6.206521739130435	-0.05434782608695652	9.934782608695652	3.0	0.414030414030414	2415.2815013404825	0.08245877061469264	-0.1664167916041979	-0.5727136431784108	
1.698241549045667E12	6.163043478260869	-0.043478260869565216	9.934782608695652	3.0	0.4144744144744145	2412.694161756829	0.06746626686656672	-0.1664167916041979	-0.5697151424287856	
1.6982415490651978E12	6.195652173913043	-0.05434782608695652	9.91304347826087	3.0	0.414030414030414	2415.2815013404825	0.07496251874062969	-0.14842578710644677	-0.5697151424287856	
1.6982415490847283E12	6.217391304347826	-0.021739130434782608	9.945652173913043	3.0	0.414030414030414	2415.2815013404825	0.08245877061469264	-0.16041979010494753	-0.5802098950524738	
1.6982415491042588E12	6.217391304347826	-0.021739130434782608	9.945652173913043	3.0	0.4144744144744145	2412.694161756829	0.06896551724137931	-0.15442278860569714	-0.5742128935532234	
1.6982415491237893E12	6.228260869565217	-0.03260869565217391	9.945652173913043	3.0	0.414030414030414	2415.2815013404825	0.06146926536731634	-0.1649175412293853	-0.568215892053973	
1.69824154914332E12	6.25	0.0	9.934782608695652	3.0	0.4144744144744145	2412.694161756829	0.07196401799100449	-0.15592203898050974	-0.5742128935532234	
1.6982415491628506E12	6.25	0.010869565217391304	9.934782608695652	3.0	0.4144744144744145	2412.694161756829	0.06896551724137931	-0.15592203898050974	-0.5727136431784108	
1.698241549182381E12	6.25	-0.021739130434782608	9.902173913043478	3.0	0.4144744144744145	2412.694161756829	0.08395802098950525	-0.1619190404797601	-0.5727136431784108	
1.6982415492019116E12	6.228260869565217	-0.06521739130434782	9.92391304347826	3.0	0.4144744144744145	2412.694161756829	0.07496251874062969	-0.15592203898050974	-0.5667166416791604	
1.6982415492214424E12	6.206521739130435	-0.06521739130434782	9.91304347826087	3.0	0.4149184149184149	2410.112359550562	0.0704647676161919	-0.14842578710644677	-0.5637181409295352	
1.698241549240973E12	6.217391304347826	-0.07608695652173914	9.945652173913043	3.0	0.4149184149184149	2410.112359550562	0.06746626686656672	-0.1634182908545727	-0.5712143928035982	
1.6982415492605034E12	6.206521739130435	-0.05434782608695652	9.945652173913043	3.0	0.4149184149184149	2410.112359550562	0.0704647676161919	-0.15742128935532235	-0.5787106446776612	
1.698241549280034E12	6.217391304347826	-0.043478260869565216	9.978260869565217	3.0	0.4144744144744145	2412.694161756829	0.06596701649175413	-0.15142428785607195	-0.5667166416791604	
1.6982415492995647E12	6.195652173913043	-0.043478260869565216	9.967391304347826	3.0	0.4149184149184149	2410.112359550562	0.07346326836581708	-0.14842578710644677	-0.5757121439280359	
1.6982415493190952E12	6.228260869565217	-0.010869565217391304	9.934782608695652	3.0	0.41536241536241536	2407.53607696419	0.07646176911544228	-0.16041979010494753	-0.5667166416791604	
1.6982415493386257E12	6.228260869565217	-0.03260869565217391	9.91304347826087	3.0	0.4144744144744145	2412.694161756829	0.07496251874062969	-0.15442278860569714	-0.5667166416791604	
1.6982415493581562E12	6.206521739130435	-0.06521739130434782	9.945652173913043	3.0	0.4149184149184149	2410.112359550562	0.07496251874062969	-0.15592203898050974	-0.5787106446776612	
1.698241549377687E12	6.260869565217391	-0.03260869565217391	9.934782608695652	3.0	0.4149184149184149	2410.112359550562	0.0704647676161919	-0.17241379310344826	-0.5757121439280359	
1.6982415493972175E12	6.217391304347826	-0.05434782608695652	9.956521739130434	3.0	0.4149184149184149	2410.112359550562	0.08095952023988005	-0.15892053973013492	-0.5772113943028485	
1.698241549416748E12	6.228260869565217	-0.03260869565217391	9.934782608695652	3.0	0.41536241536241536	2407.53607696419	0.07946026986506746	-0.15892053973013492	-0.56071964017991	
1.6982415494362786E12	6.217391304347826	-0.043478260869565216	9.92391304347826	3.0	0.41536241536241536	2407.53607696419	0.07196401799100449	-0.1619190404797601	-0.5697151424287856	
1.6982415494558093E12	6.195652173913043	-0.06521739130434782	9.92391304347826	3.0	0.41536241536241536	2407.53607696419	0.07496251874062969	-0.15592203898050974	-0.5742128935532234	
1.6982415494753398E12	6.206521739130435	-0.05434782608695652	9.956521739130434	3.0	0.4158064158064158	2404.9652963160706	0.07196401799100449	-0.15142428785607195	-0.5772113943028485	
1.6982415494948704E12	6.217391304347826	-0.06521739130434782	9.934782608695652	3.0	0.41536241536241536	2407.53607696419	0.07646176911544228	-0.15892053973013492	-0.5757121439280359	
1.698241549514401E12	6.228260869565217	-0.07608695652173914	9.956521739130434	3.0	0.41536241536241536	2407.53607696419	0.07196401799100449	-0.15592203898050974	-0.5712143928035982	
1.6982415495339316E12	6.25	-0.05434782608695652	9.92391304347826	3.0	0.41536241536241536	2407.53607696419	0.07196401799100449	-0.14992503748125938	-0.5727136431784108	
1.6982415495534622E12	6.228260869565217	-0.043478260869565216	9.92391304347826	3.0	0.4158064158064158	2404.9652963160706	0.07196401799100449	-0.1454272863568216	-0.5712143928035982	
1.6982415495729927E12	6.239130434782608	-0.06521739130434782	9.902173913043478	3.0	0.4158064158064158	2404.9652963160706	0.07346326836581708	-0.1664167916041979	-0.5742128935532234	
1.6982415495925232E12	6.25	-0.043478260869565216	9.956521739130434	3.0	0.41536241536241536	2407.53607696419	0.07496251874062969	-0.15142428785607195	-0.5772113943028485	
1.698241549612054E12	6.25	-0.043478260869565216	9.945652173913043	3.0	0.4158064158064158	2404.9652963160706	0.06746626686656672	-0.1664167916041979	-0.5727136431784108	
1.6982415496315845E12	6.228260869565217	-0.05434782608695652	9.92391304347826	3.0	0.41625041625041626	2402.4	0.06896551724137931	-0.16041979010494753	-0.5832083958020989	
1.698241549651115E12	6.217391304347826	-0.06521739130434782	9.91304347826087	3.0	0.4158064158064158	2404.9652963160706	0.06446776611694152	-0.15592203898050974	-0.5757121439280359	
1.6982415496706455E12	6.206521739130435	-0.06521739130434782	9.945652173913043	3.0	0.41625041625041626	2402.4	0.07946026986506746	-0.15292353823088456	-0.5712143928035982	
1.6982415496901763E12	6.206521739130435	-0.03260869565217391	9.956521739130434	3.0	0.41625041625041626	2402.4	0.07496251874062969	-0.15292353823088456	-0.5757121439280359	
1.6982415497097068E12	6.217391304347826	-0.043478260869565216	9.945652173913043	3.0	0.41625041625041626	2402.4	0.06146926536731634	-0.14992503748125938	-0.5742128935532234	
1.6982415497292373E12	6.239130434782608	-0.07608695652173914	9.91304347826087	3.0	0.41625041625041626	2402.4	0.08545727136431784	-0.16041979010494753	-0.5742128935532234	
1.6982415497487678E12	6.228260869565217	-0.08695652173913043	9.934782608695652	3.0	0.4166944166944167	2399.840170484816	0.0704647676161919	-0.1634182908545727	-0.5667166416791604	
1.6982415497682986E12	6.228260869565217	-0.10869565217391304	9.934782608695652	3.0	0.4166944166944167	2399.840170484816	0.07646176911544228	-0.15142428785607195	-0.5817091454272864	
1.698241549787829E12	6.25	-0.08695652173913043	9.902173913043478	3.0	0.4166944166944167	2399.840170484816	0.07196401799100449	-0.1649175412293853	-0.5847076461769115	
1.6982415498073596E12	6.228260869565217	-0.09782608695652173	9.891304347826086	3.0	0.4166944166944167	2399.840170484816	0.06146926536731634	-0.16041979010494753	-0.5742128935532234	
1.6982415498268901E12	6.206521739130435	-0.043478260869565216	9.880434782608695	3.0	0.4166944166944167	2399.840170484816	0.07196401799100449	-0.15142428785607195	-0.5757121439280359	
1.698241549846421E12	6.239130434782608	-0.05434782608695652	9.902173913043478	3.0	0.4166944166944167	2399.840170484816	0.0704647676161919	-0.14992503748125938	-0.5667166416791604	
1.6982415498659514E12	6.217391304347826	-0.03260869565217391	9.91304347826087	3.0	0.4166944166944167	2399.840170484816	0.06746626686656672	-0.15742128935532235	-0.5622188905547226	
1.698241549885482E12	6.260869565217391	-0.021739130434782608	9.92391304347826	3.0	0.4171384171384171	2397.285790313997	0.06296851574212893	-0.15142428785607195	-0.5712143928035982	
1.6982415499050125E12	6.260869565217391	-0.03260869565217391	9.92391304347826	3.0	0.4166944166944167	2399.840170484816	0.07646176911544228	-0.15742128935532235	-0.5802098950524738	
1.6982415499245432E12	6.217391304347826	-0.043478260869565216	9.92391304347826	3.0	0.4171384171384171	2397.285790313997	0.07346326836581708	-0.1649175412293853	-0.5622188905547226	
1.6982415499440737E12	6.271739130434782	-0.021739130434782608	9.956521739130434	3.0	0.4171384171384171	2397.285790313997	0.07346326836581708	-0.15742128935532235	-0.5697151424287856	
