"sep=	"
Shimmer_D349_TimestampSync_Unix_CAL	Shimmer_D349_Accel_LN_X_CAL	Shimmer_D349_Accel_LN_Y_CAL	Shimmer_D349_Accel_LN_Z_CAL	Shimmer_D349_GSR_Range_CAL	Shimmer_D349_GSR_Skin_Conductance_CAL	Shimmer_D349_GSR_Skin_Resistance_CAL	Shimmer_D349_Mag_X_CAL	Shimmer_D349_Mag_Y_CAL	Shimmer_D349_Mag_Z_CAL	
ms	m/(s^2)	m/(s^2)	m/(s^2)	no_units	uS	kOhms	local_flux	local_flux	local_flux	
1.6982411143750183E12	4.815217391304348	0.9456521739130435	10.717391304347826	3.0	0.42601842601842593	2347.3163105784265	0.16941529235382308	-0.15142428785607195	-0.5742128935532234	
1.6982411143945488E12	4.826086956521739	0.8804347826086957	10.75	3.0	0.42601842601842593	2347.3163105784265	0.15892053973013492	-0.17091454272863568	-0.5877061469265367	
1.698241114414079E12	4.815217391304348	0.9130434782608695	10.706521739130434	3.0	0.42601842601842593	2347.3163105784265	0.1649175412293853	-0.16041979010494753	-0.5817091454272864	
1.6982411144336096E12	4.793478260869565	0.9021739130434783	10.706521739130434	3.0	0.42601842601842593	2347.3163105784265	0.16041979010494753	-0.16041979010494753	-0.5862068965517241	
1.69824111445314E12	4.782608695652174	0.9347826086956521	10.706521739130434	3.0	0.42646242646242644	2344.8724622592404	0.1649175412293853	-0.16941529235382308	-0.5787106446776612	
1.6982411144726702E12	4.83695652173913	0.9130434782608695	10.728260869565217	3.0	0.42601842601842593	2347.3163105784265	0.1619190404797601	-0.1634182908545727	-0.5832083958020989	
1.6982411144922007E12	4.858695652173913	0.9130434782608695	10.76086956521739	3.0	0.42601842601842593	2347.3163105784265	0.1664167916041979	-0.17091454272863568	-0.5802098950524738	
1.698241114511731E12	4.826086956521739	0.9130434782608695	10.706521739130434	3.0	0.42646242646242644	2344.8724622592404	0.15742128935532235	-0.15742128935532235	-0.5877061469265367	
1.6982411145312615E12	4.782608695652174	0.9021739130434783	10.66304347826087	3.0	0.42601842601842593	2347.3163105784265	0.1664167916041979	-0.15592203898050974	-0.5862068965517241	
1.6982411145507917E12	4.858695652173913	0.8913043478260869	10.717391304347826	3.0	0.42601842601842593	2347.3163105784265	0.16041979010494753	-0.1649175412293853	-0.5862068965517241	
1.6982411145703223E12	4.858695652173913	0.8695652173913043	10.75	3.0	0.42601842601842593	2347.3163105784265	0.17391304347826086	-0.1679160419790105	-0.5742128935532234	
1.6982411145898525E12	4.815217391304348	0.8804347826086957	10.739130434782608	3.0	0.42601842601842593	2347.3163105784265	0.1634182908545727	-0.1634182908545727	-0.5847076461769115	
1.698241114609383E12	4.804347826086956	0.9021739130434783	10.684782608695652	3.0	0.42601842601842593	2347.3163105784265	0.1634182908545727	-0.16041979010494753	-0.5937031484257871	
1.6982411146289133E12	4.8478260869565215	0.9021739130434783	10.728260869565217	3.0	0.42557442557442554	2349.7652582159626	0.1664167916041979	-0.1649175412293853	-0.5802098950524738	
1.6982411146484438E12	4.75	0.9239130434782609	10.728260869565217	3.0	0.42601842601842593	2347.3163105784265	0.1649175412293853	-0.15742128935532235	-0.5802098950524738	
1.698241114667974E12	4.826086956521739	0.8913043478260869	10.728260869565217	3.0	0.42601842601842593	2347.3163105784265	0.15892053973013492	-0.1649175412293853	-0.5832083958020989	
1.6982411146875046E12	4.815217391304348	0.9021739130434783	10.717391304347826	3.0	0.42557442557442554	2349.7652582159626	0.16041979010494753	-0.15142428785607195	-0.5802098950524738	
1.698241114707035E12	4.826086956521739	0.8913043478260869	10.706521739130434	3.0	0.42557442557442554	2349.7652582159626	0.1619190404797601	-0.15892053973013492	-0.5772113943028485	
1.6982411147265652E12	4.83695652173913	0.9130434782608695	10.717391304347826	3.0	0.42557442557442554	2349.7652582159626	0.16941529235382308	-0.17091454272863568	-0.5847076461769115	
1.6982411147460957E12	4.815217391304348	0.9021739130434783	10.717391304347826	3.0	0.42601842601842593	2347.3163105784265	0.15742128935532235	-0.1634182908545727	-0.5862068965517241	
1.698241114765626E12	4.826086956521739	0.9239130434782609	10.67391304347826	3.0	0.42601842601842593	2347.3163105784265	0.15742128935532235	-0.14992503748125938	-0.5832083958020989	
1.6982411147851565E12	4.804347826086956	0.858695652173913	10.717391304347826	3.0	0.42557442557442554	2349.7652582159626	0.15892053973013492	-0.14992503748125938	-0.5802098950524738	
1.6982411148046868E12	4.83695652173913	0.9130434782608695	10.717391304347826	3.0	0.42557442557442554	2349.7652582159626	0.15742128935532235	-0.1664167916041979	-0.5772113943028485	
1.6982411148242173E12	4.83695652173913	0.8804347826086957	10.739130434782608	3.0	0.42601842601842593	2347.3163105784265	0.1634182908545727	-0.15742128935532235	-0.5862068965517241	
1.6982411148437476E12	4.75	0.9130434782608695	10.684782608695652	3.0	0.42557442557442554	2349.7652582159626	0.1664167916041979	-0.15592203898050974	-0.5757121439280359	
1.698241114863278E12	4.793478260869565	0.8695652173913043	10.684782608695652	3.0	0.42557442557442554	2349.7652582159626	0.16041979010494753	-0.17541229385307347	-0.5832083958020989	
1.6982411148828083E12	4.83695652173913	0.9021739130434783	10.728260869565217	3.0	0.42557442557442554	2349.7652582159626	0.1634182908545727	-0.15592203898050974	-0.5817091454272864	
1.6982411149023389E12	4.83695652173913	0.8804347826086957	10.728260869565217	3.0	0.42557442557442554	2349.7652582159626	0.15742128935532235	-0.15592203898050974	-0.5847076461769115	
1.6982411149218691E12	4.880434782608695	0.8695652173913043	10.75	3.0	0.42557442557442554	2349.7652582159626	0.15592203898050974	-0.17091454272863568	-0.5832083958020989	
1.6982411149413997E12	4.891304347826087	0.9021739130434783	10.739130434782608	3.0	0.42557442557442554	2349.7652582159626	0.1649175412293853	-0.15742128935532235	-0.5772113943028485	
1.69824111496093E12	4.815217391304348	0.9347826086956521	10.717391304347826	3.0	0.42601842601842593	2347.3163105784265	0.14992503748125938	-0.17691154422788605	-0.5832083958020989	
1.6982411149804602E12	4.826086956521739	0.8913043478260869	10.695652173913043	3.0	0.42557442557442554	2349.7652582159626	0.1649175412293853	-0.17391304347826086	-0.5847076461769115	
1.6982411149999907E12	4.826086956521739	0.8695652173913043	10.67391304347826	3.0	0.42557442557442554	2349.7652582159626	0.1649175412293853	-0.16941529235382308	-0.5757121439280359	
1.698241115019521E12	4.815217391304348	0.8478260869565217	10.67391304347826	3.0	0.42557442557442554	2349.7652582159626	0.17091454272863568	-0.15892053973013492	-0.5787106446776612	
1.6982411150390515E12	4.793478260869565	0.8804347826086957	10.66304347826087	3.0	0.42557442557442554	2349.7652582159626	0.1679160419790105	-0.17691154422788605	-0.5907046476761619	
1.6982411150585818E12	4.826086956521739	0.8695652173913043	10.695652173913043	3.0	0.42557442557442554	2349.7652582159626	0.16041979010494753	-0.16041979010494753	-0.5787106446776612	
1.6982411150781123E12	4.826086956521739	0.8913043478260869	10.728260869565217	3.0	0.42557442557442554	2349.7652582159626	0.15592203898050974	-0.1634182908545727	-0.5772113943028485	
1.6982411150976426E12	4.83695652173913	0.8913043478260869	10.717391304347826	3.0	0.42557442557442554	2349.7652582159626	0.16041979010494753	-0.14692653673163417	-0.5772113943028485	
1.698241115117173E12	4.826086956521739	0.9021739130434783	10.739130434782608	3.0	0.42557442557442554	2349.7652582159626	0.15592203898050974	-0.17091454272863568	-0.5817091454272864	
1.6982411151367034E12	4.815217391304348	0.8804347826086957	10.739130434782608	3.0	0.42557442557442554	2349.7652582159626	0.1634182908545727	-0.16941529235382308	-0.5817091454272864	
1.698241115156234E12	4.793478260869565	0.8913043478260869	10.695652173913043	3.0	0.42557442557442554	2349.7652582159626	0.1679160419790105	-0.1454272863568216	-0.5742128935532234	
1.6982411151757642E12	4.804347826086956	0.8695652173913043	10.717391304347826	3.0	0.42557442557442554	2349.7652582159626	0.1649175412293853	-0.17241379310344826	-0.5862068965517241	
1.6982411151952944E12	4.83695652173913	0.8913043478260869	10.739130434782608	3.0	0.42557442557442554	2349.7652582159626	0.1664167916041979	-0.15592203898050974	-0.5997001499250375	
1.698241115214825E12	4.793478260869565	0.9021739130434783	10.67391304347826	3.0	0.42513042513042515	2352.219321148825	0.1634182908545727	-0.15742128935532235	-0.5832083958020989	
1.6982411152343552E12	4.771739130434782	0.9021739130434783	10.728260869565217	3.0	0.42557442557442554	2349.7652582159626	0.15892053973013492	-0.1634182908545727	-0.5802098950524738	
1.6982411152538857E12	4.826086956521739	0.8804347826086957	10.695652173913043	3.0	0.42513042513042515	2352.219321148825	0.1664167916041979	-0.16941529235382308	-0.5757121439280359	
1.698241115273416E12	4.869565217391305	0.8695652173913043	10.706521739130434	3.0	0.42513042513042515	2352.219321148825	0.15592203898050974	-0.1619190404797601	-0.5832083958020989	
1.6982411152929465E12	4.815217391304348	0.858695652173913	10.695652173913043	3.0	0.42557442557442554	2349.7652582159626	0.1679160419790105	-0.16041979010494753	-0.5847076461769115	
1.6982411153124768E12	4.826086956521739	0.858695652173913	10.684782608695652	3.0	0.42513042513042515	2352.219321148825	0.1634182908545727	-0.1679160419790105	-0.5757121439280359	
1.6982411153320073E12	4.793478260869565	0.8695652173913043	10.717391304347826	3.0	0.42513042513042515	2352.219321148825	0.16041979010494753	-0.15742128935532235	-0.5847076461769115	
1.6982411153515376E12	4.793478260869565	0.8478260869565217	10.728260869565217	3.0	0.42513042513042515	2352.219321148825	0.15742128935532235	-0.15292353823088456	-0.5742128935532234	
1.698241115371068E12	4.804347826086956	0.8369565217391304	10.706521739130434	3.0	0.42557442557442554	2349.7652582159626	0.15892053973013492	-0.16041979010494753	-0.5922038980509745	
1.6982411153905984E12	4.815217391304348	0.858695652173913	10.717391304347826	3.0	0.42601842601842593	2347.3163105784265	0.1679160419790105	-0.1619190404797601	-0.5847076461769115	
1.698241115410129E12	4.793478260869565	0.858695652173913	10.706521739130434	3.0	0.42513042513042515	2352.219321148825	0.1634182908545727	-0.16941529235382308	-0.5847076461769115	
1.6982411154296592E12	4.826086956521739	0.8478260869565217	10.717391304347826	3.0	0.42557442557442554	2349.7652582159626	0.17391304347826086	-0.15742128935532235	-0.5907046476761619	
1.6982411154491895E12	4.793478260869565	0.8913043478260869	10.67391304347826	3.0	0.42557442557442554	2349.7652582159626	0.1649175412293853	-0.16041979010494753	-0.5952023988005997	
1.69824111546872E12	4.826086956521739	0.858695652173913	10.728260869565217	3.0	0.42557442557442554	2349.7652582159626	0.15592203898050974	-0.16041979010494753	-0.5877061469265367	
1.6982411154882502E12	4.815217391304348	0.8695652173913043	10.695652173913043	3.0	0.42557442557442554	2349.7652582159626	0.1664167916041979	-0.16041979010494753	-0.5892053973013494	
1.6982411155077808E12	4.815217391304348	0.8695652173913043	10.695652173913043	3.0	0.42513042513042515	2352.219321148825	0.1679160419790105	-0.16941529235382308	-0.5892053973013494	
1.698241115527311E12	4.793478260869565	0.858695652173913	10.67391304347826	3.0	0.42513042513042515	2352.219321148825	0.17991004497751123	-0.17091454272863568	-0.5742128935532234	
1.6982411155468416E12	4.815217391304348	0.8695652173913043	10.684782608695652	3.0	0.42557442557442554	2349.7652582159626	0.15442278860569714	-0.15292353823088456	-0.5847076461769115	
1.6982411155663718E12	4.804347826086956	0.8478260869565217	10.728260869565217	3.0	0.42557442557442554	2349.7652582159626	0.15892053973013492	-0.14692653673163417	-0.5832083958020989	
1.6982411155859023E12	4.793478260869565	0.8478260869565217	10.739130434782608	3.0	0.42513042513042515	2352.219321148825	0.17391304347826086	-0.1679160419790105	-0.5862068965517241	
1.6982411156054326E12	4.804347826086956	0.8478260869565217	10.728260869565217	3.0	0.42513042513042515	2352.219321148825	0.17091454272863568	-0.14992503748125938	-0.5907046476761619	
1.6982411156249631E12	4.858695652173913	0.8478260869565217	10.739130434782608	3.0	0.42513042513042515	2352.219321148825	0.17091454272863568	-0.15892053973013492	-0.5817091454272864	
1.6982411156444934E12	4.8478260869565215	0.8260869565217391	10.67391304347826	3.0	0.42513042513042515	2352.219321148825	0.1649175412293853	-0.15292353823088456	-0.5892053973013494	
1.698241115664024E12	4.815217391304348	0.8478260869565217	10.684782608695652	3.0	0.42513042513042515	2352.219321148825	0.1634182908545727	-0.17391304347826086	-0.5847076461769115	
1.6982411156835542E12	4.815217391304348	0.8478260869565217	10.717391304347826	3.0	0.42513042513042515	2352.219321148825	0.1664167916041979	-0.15892053973013492	-0.5877061469265367	
1.6982411157030845E12	4.804347826086956	0.8478260869565217	10.695652173913043	3.0	0.42601842601842593	2347.3163105784265	0.16041979010494753	-0.1619190404797601	-0.5847076461769115	
1.698241115722615E12	4.782608695652174	0.8152173913043478	10.67391304347826	3.0	0.42601842601842593	2347.3163105784265	0.1634182908545727	-0.17691154422788605	-0.5832083958020989	
1.6982411157421453E12	4.782608695652174	0.8478260869565217	10.66304347826087	3.0	0.42557442557442554	2349.7652582159626	0.1649175412293853	-0.1649175412293853	-0.5847076461769115	
1.6982411157616758E12	4.815217391304348	0.9021739130434783	10.66304347826087	3.0	0.42557442557442554	2349.7652582159626	0.1664167916041979	-0.16041979010494753	-0.5907046476761619	
1.698241115781206E12	4.858695652173913	0.858695652173913	10.782608695652174	3.0	0.42557442557442554	2349.7652582159626	0.17091454272863568	-0.16941529235382308	-0.5862068965517241	
1.6982411158007366E12	4.804347826086956	0.9130434782608695	10.728260869565217	3.0	0.42557442557442554	2349.7652582159626	0.15892053973013492	-0.1619190404797601	-0.5937031484257871	
1.6982411158202668E12	4.83695652173913	0.9021739130434783	10.706521739130434	3.0	0.42557442557442554	2349.7652582159626	0.1619190404797601	-0.1619190404797601	-0.5877061469265367	
1.6982411158397974E12	4.804347826086956	0.8695652173913043	10.717391304347826	3.0	0.42557442557442554	2349.7652582159626	0.1679160419790105	-0.1649175412293853	-0.5832083958020989	
1.6982411158593276E12	4.75	0.858695652173913	10.706521739130434	3.0	0.42557442557442554	2349.7652582159626	0.1664167916041979	-0.16041979010494753	-0.5832083958020989	
1.6982411158788582E12	4.8478260869565215	0.858695652173913	10.717391304347826	3.0	0.42513042513042515	2352.219321148825	0.15892053973013492	-0.15892053973013492	-0.5847076461769115	
1.6982411158983884E12	4.793478260869565	0.858695652173913	10.717391304347826	3.0	0.42557442557442554	2349.7652582159626	0.1619190404797601	-0.1664167916041979	-0.5877061469265367	
1.698241115917919E12	4.8478260869565215	0.858695652173913	10.695652173913043	3.0	0.42557442557442554	2349.7652582159626	0.15292353823088456	-0.1619190404797601	-0.5862068965517241	
1.6982411159374492E12	4.804347826086956	0.8478260869565217	10.67391304347826	3.0	0.42557442557442554	2349.7652582159626	0.1619190404797601	-0.1619190404797601	-0.5832083958020989	
1.6982411159569795E12	4.826086956521739	0.8478260869565217	10.66304347826087	3.0	0.42513042513042515	2352.219321148825	0.16941529235382308	-0.17241379310344826	-0.5802098950524738	
1.69824111597651E12	4.804347826086956	0.8695652173913043	10.695652173913043	3.0	0.42513042513042515	2352.219321148825	0.15742128935532235	-0.1619190404797601	-0.5757121439280359	
1.6982411159960403E12	4.760869565217392	0.8695652173913043	10.728260869565217	3.0	0.42513042513042515	2352.219321148825	0.1634182908545727	-0.15142428785607195	-0.5847076461769115	
1.6982411160155708E12	4.869565217391305	0.858695652173913	10.717391304347826	3.0	0.42557442557442554	2349.7652582159626	0.1664167916041979	-0.1679160419790105	-0.5757121439280359	
1.698241116035101E12	4.858695652173913	0.8369565217391304	10.75	3.0	0.42513042513042515	2352.219321148825	0.15892053973013492	-0.15742128935532235	-0.5757121439280359	
1.6982411160546316E12	4.793478260869565	0.8695652173913043	10.67391304347826	3.0	0.42513042513042515	2352.219321148825	0.15292353823088456	-0.1634182908545727	-0.5862068965517241	
1.6982411160741619E12	4.815217391304348	0.8804347826086957	10.706521739130434	3.0	0.42513042513042515	2352.219321148825	0.1679160419790105	-0.17091454272863568	-0.5847076461769115	
1.6982411160936924E12	4.826086956521739	0.858695652173913	10.706521739130434	3.0	0.42468642468642465	2354.678515420805	0.16041979010494753	-0.14992503748125938	-0.5937031484257871	
1.6982411161132227E12	4.804347826086956	0.9130434782608695	10.717391304347826	3.0	0.42513042513042515	2352.219321148825	0.1634182908545727	-0.15892053973013492	-0.5907046476761619	
1.6982411161327532E12	4.869565217391305	0.858695652173913	10.717391304347826	3.0	0.42513042513042515	2352.219321148825	0.1634182908545727	-0.17391304347826086	-0.5772113943028485	
1.6982411161522834E12	4.804347826086956	0.9021739130434783	10.728260869565217	3.0	0.42468642468642465	2354.678515420805	0.15592203898050974	-0.15592203898050974	-0.5877061469265367	
1.6982411161718137E12	4.83695652173913	0.8369565217391304	10.695652173913043	3.0	0.42513042513042515	2352.219321148825	0.1649175412293853	-0.1634182908545727	-0.5802098950524738	
1.6982411161913442E12	4.826086956521739	0.858695652173913	10.728260869565217	3.0	0.42513042513042515	2352.219321148825	0.1679160419790105	-0.15742128935532235	-0.5757121439280359	
1.6982411162108745E12	4.75	0.858695652173913	10.717391304347826	3.0	0.42513042513042515	2352.219321148825	0.15592203898050974	-0.1424287856071964	-0.5712143928035982	
1.698241116230405E12	4.815217391304348	0.9021739130434783	10.739130434782608	3.0	0.42513042513042515	2352.219321148825	0.1619190404797601	-0.1634182908545727	-0.5817091454272864	
1.6982411162499353E12	4.83695652173913	0.858695652173913	10.717391304347826	3.0	0.42513042513042515	2352.219321148825	0.1619190404797601	-0.1679160419790105	-0.5892053973013494	
1.6982411162694658E12	4.815217391304348	0.858695652173913	10.684782608695652	3.0	0.42468642468642465	2354.678515420805	0.16041979010494753	-0.16941529235382308	-0.5847076461769115	
1.698241116288996E12	4.793478260869565	0.9021739130434783	10.706521739130434	3.0	0.42468642468642465	2354.678515420805	0.1679160419790105	-0.15292353823088456	-0.5847076461769115	
1.6982411163085266E12	4.760869565217392	0.8695652173913043	10.706521739130434	3.0	0.42468642468642465	2354.678515420805	0.1664167916041979	-0.16941529235382308	-0.5877061469265367	
1.698241116328057E12	4.891304347826087	0.8695652173913043	10.76086956521739	3.0	0.42468642468642465	2354.678515420805	0.1634182908545727	-0.1634182908545727	-0.5802098950524738	
1.6982411163475874E12	4.858695652173913	0.8804347826086957	10.717391304347826	3.0	0.4242424242424242	2357.1428571428573	0.15592203898050974	-0.1619190404797601	-0.5772113943028485	
1.6982411163671177E12	4.815217391304348	0.8913043478260869	10.684782608695652	3.0	0.42468642468642465	2354.678515420805	0.15442278860569714	-0.1619190404797601	-0.5892053973013494	
1.6982411163866482E12	4.83695652173913	0.8913043478260869	10.684782608695652	3.0	0.42468642468642465	2354.678515420805	0.16041979010494753	-0.15292353823088456	-0.5847076461769115	
1.6982411164061785E12	4.826086956521739	0.8478260869565217	10.67391304347826	3.0	0.42468642468642465	2354.678515420805	0.1619190404797601	-0.17541229385307347	-0.5832083958020989	
1.6982411164257087E12	4.858695652173913	0.8804347826086957	10.67391304347826	3.0	0.42468642468642465	2354.678515420805	0.1649175412293853	-0.17541229385307347	-0.5877061469265367	
1.6982411164452393E12	4.826086956521739	0.8804347826086957	10.695652173913043	3.0	0.42468642468642465	2354.678515420805	0.15892053973013492	-0.15892053973013492	-0.5757121439280359	
1.6982411164647695E12	4.782608695652174	0.9021739130434783	10.706521739130434	3.0	0.42468642468642465	2354.678515420805	0.15892053973013492	-0.15592203898050974	-0.5862068965517241	
1.6982411164843E12	4.815217391304348	0.9021739130434783	10.739130434782608	3.0	0.42468642468642465	2354.678515420805	0.1649175412293853	-0.1619190404797601	-0.5787106446776612	
1.6982411165038303E12	4.826086956521739	0.8804347826086957	10.706521739130434	3.0	0.4242424242424242	2357.1428571428573	0.15892053973013492	-0.1634182908545727	-0.5817091454272864	
1.6982411165233608E12	4.8478260869565215	0.9021739130434783	10.695652173913043	3.0	0.42468642468642465	2354.678515420805	0.1649175412293853	-0.1634182908545727	-0.5802098950524738	
1.698241116542891E12	4.793478260869565	0.8913043478260869	10.706521739130434	3.0	0.42468642468642465	2354.678515420805	0.1664167916041979	-0.17391304347826086	-0.5817091454272864	
1.6982411165624216E12	4.771739130434782	0.8913043478260869	10.717391304347826	3.0	0.4242424242424242	2357.1428571428573	0.1619190404797601	-0.15742128935532235	-0.5787106446776612	
1.698241116581952E12	4.826086956521739	0.9021739130434783	10.717391304347826	3.0	0.42468642468642465	2354.678515420805	0.15742128935532235	-0.17691154422788605	-0.5862068965517241	
1.6982411166014824E12	4.869565217391305	0.9239130434782609	10.717391304347826	3.0	0.4242424242424242	2357.1428571428573	0.1619190404797601	-0.16041979010494753	-0.5772113943028485	
1.6982411166210127E12	4.83695652173913	0.8804347826086957	10.67391304347826	3.0	0.42468642468642465	2354.678515420805	0.1634182908545727	-0.15742128935532235	-0.5877061469265367	
1.6982411166405432E12	4.815217391304348	0.9021739130434783	10.739130434782608	3.0	0.42468642468642465	2354.678515420805	0.1664167916041979	-0.15142428785607195	-0.5907046476761619	
1.6982411166600735E12	4.826086956521739	0.858695652173913	10.706521739130434	3.0	0.4242424242424242	2357.1428571428573	0.15742128935532235	-0.15892053973013492	-0.5892053973013494	
1.6982411166796038E12	4.804347826086956	0.9021739130434783	10.706521739130434	3.0	0.4242424242424242	2357.1428571428573	0.1619190404797601	-0.16041979010494753	-0.5757121439280359	
1.6982411166991343E12	4.880434782608695	0.8804347826086957	10.695652173913043	3.0	0.4242424242424242	2357.1428571428573	0.16041979010494753	-0.15442278860569714	-0.5832083958020989	
1.6982411167186646E12	4.815217391304348	0.9347826086956521	10.652173913043478	3.0	0.4242424242424242	2357.1428571428573	0.1634182908545727	-0.1634182908545727	-0.5787106446776612	
1.698241116738195E12	4.8478260869565215	0.8695652173913043	10.706521739130434	3.0	0.4242424242424242	2357.1428571428573	0.15592203898050974	-0.17091454272863568	-0.5862068965517241	
1.6982411167577253E12	4.858695652173913	0.8913043478260869	10.75	3.0	0.42468642468642465	2354.678515420805	0.1634182908545727	-0.1454272863568216	-0.5772113943028485	
1.6982411167772559E12	4.8478260869565215	0.8913043478260869	10.695652173913043	3.0	0.4242424242424242	2357.1428571428573	0.15592203898050974	-0.15142428785607195	-0.5832083958020989	
1.6982411167967861E12	4.793478260869565	0.8695652173913043	10.684782608695652	3.0	0.4242424242424242	2357.1428571428573	0.1634182908545727	-0.15892053973013492	-0.5877061469265367	
1.6982411168163167E12	4.815217391304348	0.8695652173913043	10.717391304347826	3.0	0.4237984237984238	2359.612362493452	0.15292353823088456	-0.15442278860569714	-0.5817091454272864	
1.698241116835847E12	4.815217391304348	0.9021739130434783	10.728260869565217	3.0	0.4242424242424242	2357.1428571428573	0.1619190404797601	-0.15442278860569714	-0.5817091454272864	
1.6982411168553774E12	4.815217391304348	0.9347826086956521	10.66304347826087	3.0	0.4242424242424242	2357.1428571428573	0.16041979010494753	-0.17091454272863568	-0.5952023988005997	
1.6982411168749077E12	4.815217391304348	0.9239130434782609	10.706521739130434	3.0	0.4237984237984238	2359.612362493452	0.17091454272863568	-0.1679160419790105	-0.5952023988005997	
1.6982411168944382E12	4.858695652173913	0.8804347826086957	10.717391304347826	3.0	0.4242424242424242	2357.1428571428573	0.1649175412293853	-0.15592203898050974	-0.5742128935532234	
1.6982411169139685E12	4.858695652173913	0.9021739130434783	10.706521739130434	3.0	0.4242424242424242	2357.1428571428573	0.1679160419790105	-0.15892053973013492	-0.5847076461769115	
1.6982411169334988E12	4.826086956521739	0.9021739130434783	10.695652173913043	3.0	0.4237984237984238	2359.612362493452	0.1679160419790105	-0.1664167916041979	-0.5742128935532234	
1.6982411169530293E12	4.83695652173913	0.8913043478260869	10.717391304347826	3.0	0.4242424242424242	2357.1428571428573	0.16041979010494753	-0.17241379310344826	-0.5847076461769115	
1.6982411169725596E12	4.815217391304348	0.8804347826086957	10.728260869565217	3.0	0.4242424242424242	2357.1428571428573	0.15142428785607195	-0.1664167916041979	-0.5892053973013494	
1.69824111699209E12	4.8478260869565215	0.9130434782608695	10.771739130434783	3.0	0.4237984237984238	2359.612362493452	0.15892053973013492	-0.17241379310344826	-0.5712143928035982	
1.6982411170116204E12	4.826086956521739	0.9021739130434783	10.695652173913043	3.0	0.4237984237984238	2359.612362493452	0.15892053973013492	-0.1649175412293853	-0.5877061469265367	
1.698241117031151E12	4.83695652173913	0.8695652173913043	10.695652173913043	3.0	0.4237984237984238	2359.612362493452	0.16941529235382308	-0.14992503748125938	-0.5832083958020989	
1.6982411170506812E12	4.815217391304348	0.8695652173913043	10.695652173913043	3.0	0.4237984237984238	2359.612362493452	0.16941529235382308	-0.16941529235382308	-0.5862068965517241	
1.6982411170702117E12	4.891304347826087	0.9021739130434783	10.706521739130434	3.0	0.4233544233544233	2362.0870477189305	0.15892053973013492	-0.15742128935532235	-0.5772113943028485	
1.698241117089742E12	4.826086956521739	0.8804347826086957	10.75	3.0	0.4233544233544233	2362.0870477189305	0.1619190404797601	-0.1664167916041979	-0.5772113943028485	
1.6982411171092725E12	4.782608695652174	0.9239130434782609	10.684782608695652	3.0	0.4237984237984238	2359.612362493452	0.15442278860569714	-0.14842578710644677	-0.5802098950524738	
1.6982411171288027E12	4.815217391304348	0.9130434782608695	10.717391304347826	3.0	0.4233544233544233	2362.0870477189305	0.15742128935532235	-0.17691154422788605	-0.5817091454272864	
1.6982411171483333E12	4.869565217391305	0.9021739130434783	10.706521739130434	3.0	0.4233544233544233	2362.0870477189305	0.15592203898050974	-0.15892053973013492	-0.5862068965517241	
1.6982411171678635E12	4.880434782608695	0.9456521739130435	10.75	3.0	0.4233544233544233	2362.0870477189305	0.14392803598200898	-0.15742128935532235	-0.5952023988005997	
1.6982411171873938E12	4.891304347826087	0.9130434782608695	10.717391304347826	3.0	0.4237984237984238	2359.612362493452	0.16041979010494753	-0.1619190404797601	-0.5847076461769115	
1.6982411172069243E12	4.858695652173913	0.8695652173913043	10.706521739130434	3.0	0.4233544233544233	2362.0870477189305	0.1619190404797601	-0.1634182908545727	-0.5787106446776612	
1.6982411172264546E12	4.804347826086956	0.9130434782608695	10.630434782608695	3.0	0.4233544233544233	2362.0870477189305	0.17391304347826086	-0.17091454272863568	-0.5922038980509745	
1.698241117245985E12	4.771739130434782	0.8695652173913043	10.684782608695652	3.0	0.4233544233544233	2362.0870477189305	0.17241379310344826	-0.15592203898050974	-0.5787106446776612	
1.6982411172655154E12	4.804347826086956	0.8804347826086957	10.717391304347826	3.0	0.4237984237984238	2359.612362493452	0.15892053973013492	-0.1619190404797601	-0.5817091454272864	
1.698241117285046E12	4.826086956521739	0.8913043478260869	10.706521739130434	3.0	0.4233544233544233	2362.0870477189305	0.1634182908545727	-0.16941529235382308	-0.5847076461769115	
1.6982411173045762E12	4.793478260869565	0.9239130434782609	10.706521739130434	3.0	0.4233544233544233	2362.0870477189305	0.16041979010494753	-0.15442278860569714	-0.5847076461769115	
1.6982411173241067E12	4.8478260869565215	0.9239130434782609	10.706521739130434	3.0	0.4233544233544233	2362.0870477189305	0.1634182908545727	-0.1619190404797601	-0.5862068965517241	
1.698241117343637E12	4.858695652173913	0.9021739130434783	10.684782608695652	3.0	0.4233544233544233	2362.0870477189305	0.16041979010494753	-0.14992503748125938	-0.5742128935532234	
1.6982411173631675E12	4.858695652173913	0.9347826086956521	10.728260869565217	3.0	0.42291042291042286	2364.5669291338586	0.15742128935532235	-0.16041979010494753	-0.5862068965517241	
1.6982411173826978E12	4.815217391304348	0.8804347826086957	10.66304347826087	3.0	0.4233544233544233	2362.0870477189305	0.1634182908545727	-0.15292353823088456	-0.5877061469265367	
1.698241117402228E12	4.83695652173913	0.8913043478260869	10.66304347826087	3.0	0.42291042291042286	2364.5669291338586	0.1664167916041979	-0.15142428785607195	-0.5772113943028485	
1.6982411174217585E12	4.826086956521739	0.9021739130434783	10.67391304347826	3.0	0.42291042291042286	2364.5669291338586	0.15742128935532235	-0.14692653673163417	-0.5817091454272864	
1.6982411174412888E12	4.760869565217392	0.9021739130434783	10.695652173913043	3.0	0.42291042291042286	2364.5669291338586	0.15142428785607195	-0.15892053973013492	-0.5847076461769115	
1.6982411174608193E12	4.826086956521739	0.9130434782608695	10.695652173913043	3.0	0.4233544233544233	2362.0870477189305	0.15742128935532235	-0.17391304347826086	-0.5937031484257871	
1.6982411174803496E12	4.826086956521739	0.9130434782608695	10.728260869565217	3.0	0.4233544233544233	2362.0870477189305	0.15742128935532235	-0.1619190404797601	-0.5742128935532234	
1.6982411174998801E12	4.83695652173913	0.8913043478260869	10.717391304347826	3.0	0.42291042291042286	2364.5669291338586	0.15442278860569714	-0.1649175412293853	-0.5787106446776612	
1.6982411175194104E12	4.83695652173913	0.8913043478260869	10.695652173913043	3.0	0.42291042291042286	2364.5669291338586	0.15742128935532235	-0.17241379310344826	-0.5802098950524738	
1.698241117538941E12	4.793478260869565	0.9021739130434783	10.684782608695652	3.0	0.42291042291042286	2364.5669291338586	0.15592203898050974	-0.17091454272863568	-0.5802098950524738	
1.6982411175584712E12	4.804347826086956	0.9239130434782609	10.652173913043478	3.0	0.42291042291042286	2364.5669291338586	0.15892053973013492	-0.1619190404797601	-0.5877061469265367	
1.6982411175780017E12	4.83695652173913	0.9021739130434783	10.728260869565217	3.0	0.42291042291042286	2364.5669291338586	0.1664167916041979	-0.16941529235382308	-0.568215892053973	
1.698241117597532E12	4.858695652173913	0.9021739130434783	10.739130434782608	3.0	0.42291042291042286	2364.5669291338586	0.15892053973013492	-0.1664167916041979	-0.5862068965517241	
1.6982411176170625E12	4.83695652173913	0.8913043478260869	10.717391304347826	3.0	0.42291042291042286	2364.5669291338586	0.1619190404797601	-0.15142428785607195	-0.5862068965517241	
1.6982411176365928E12	4.782608695652174	0.8913043478260869	10.717391304347826	3.0	0.42291042291042286	2364.5669291338586	0.1634182908545727	-0.17241379310344826	-0.5817091454272864	
1.698241117656123E12	4.804347826086956	0.9021739130434783	10.706521739130434	3.0	0.42291042291042286	2364.5669291338586	0.1619190404797601	-0.1634182908545727	-0.5877061469265367	
1.6982411176756536E12	4.8478260869565215	0.8804347826086957	10.717391304347826	3.0	0.4233544233544233	2362.0870477189305	0.15742128935532235	-0.1649175412293853	-0.5712143928035982	
1.6982411176951838E12	4.804347826086956	0.9239130434782609	10.67391304347826	3.0	0.42246642246642246	2367.0520231213873	0.14842578710644677	-0.1664167916041979	-0.5787106446776612	
1.6982411177147144E12	4.83695652173913	0.8913043478260869	10.695652173913043	3.0	0.42291042291042286	2364.5669291338586	0.16941529235382308	-0.1679160419790105	-0.5922038980509745	
1.6982411177342446E12	4.869565217391305	0.9021739130434783	10.695652173913043	3.0	0.42246642246642246	2367.0520231213873	0.1679160419790105	-0.16041979010494753	-0.5817091454272864	
1.6982411177537751E12	4.8478260869565215	0.9347826086956521	10.67391304347826	3.0	0.42291042291042286	2364.5669291338586	0.16041979010494753	-0.15742128935532235	-0.5757121439280359	
1.6982411177733054E12	4.869565217391305	0.8913043478260869	10.717391304347826	3.0	0.42246642246642246	2367.0520231213873	0.17241379310344826	-0.16941529235382308	-0.5832083958020989	
1.698241117792836E12	4.815217391304348	0.9239130434782609	10.695652173913043	3.0	0.42246642246642246	2367.0520231213873	0.15442278860569714	-0.1619190404797601	-0.5787106446776612	
1.6982411178123662E12	4.793478260869565	0.8913043478260869	10.695652173913043	3.0	0.42202242202242196	2369.542346133614	0.1664167916041979	-0.14392803598200898	-0.5622188905547226	
1.6982411178318967E12	4.826086956521739	0.8913043478260869	10.728260869565217	3.0	0.42246642246642246	2367.0520231213873	0.15142428785607195	-0.17841079460269865	-0.5772113943028485	
1.698241117851427E12	4.8478260869565215	0.9130434782608695	10.728260869565217	3.0	0.42202242202242196	2369.542346133614	0.1649175412293853	-0.1649175412293853	-0.5757121439280359	
1.6982411178709575E12	4.782608695652174	0.8913043478260869	10.695652173913043	3.0	0.42246642246642246	2367.0520231213873	0.1619190404797601	-0.1649175412293853	-0.5892053973013494	
1.6982411178904878E12	4.793478260869565	0.9347826086956521	10.706521739130434	3.0	0.42291042291042286	2364.5669291338586	0.1634182908545727	-0.15892053973013492	-0.5802098950524738	
1.698241117910018E12	4.815217391304348	0.9021739130434783	10.728260869565217	3.0	0.42202242202242196	2369.542346133614	0.15742128935532235	-0.16041979010494753	-0.5667166416791604	
1.6982411179295486E12	4.83695652173913	0.9239130434782609	10.717391304347826	3.0	0.42202242202242196	2369.542346133614	0.15292353823088456	-0.1664167916041979	-0.5817091454272864	
1.6982411179490789E12	4.880434782608695	0.9021739130434783	10.717391304347826	3.0	0.42202242202242196	2369.542346133614	0.15742128935532235	-0.1679160419790105	-0.5832083958020989	
1.6982411179686094E12	4.83695652173913	0.9347826086956521	10.717391304347826	3.0	0.42202242202242196	2369.542346133614	0.15442278860569714	-0.1619190404797601	-0.5697151424287856	
1.6982411179881396E12	4.826086956521739	0.9021739130434783	10.728260869565217	3.0	0.42202242202242196	2369.542346133614	0.15592203898050974	-0.16941529235382308	-0.5772113943028485	
1.6982411180076702E12	4.815217391304348	0.8913043478260869	10.717391304347826	3.0	0.42157842157842157	2372.037914691943	0.1649175412293853	-0.17691154422788605	-0.5817091454272864	
1.6982411180272004E12	4.771739130434782	0.9239130434782609	10.717391304347826	3.0	0.42202242202242196	2369.542346133614	0.1679160419790105	-0.15292353823088456	-0.5757121439280359	
1.698241118046731E12	4.83695652173913	0.9347826086956521	10.728260869565217	3.0	0.42202242202242196	2369.542346133614	0.15142428785607195	-0.1634182908545727	-0.5802098950524738	
1.6982411180662612E12	4.9021739130434785	0.9239130434782609	10.739130434782608	3.0	0.42157842157842157	2372.037914691943	0.15892053973013492	-0.15592203898050974	-0.5817091454272864	
1.6982411180857917E12	4.8478260869565215	0.8913043478260869	10.739130434782608	3.0	0.42157842157842157	2372.037914691943	0.16941529235382308	-0.1619190404797601	-0.5862068965517241	
1.698241118105322E12	4.858695652173913	0.8695652173913043	10.684782608695652	3.0	0.42157842157842157	2372.037914691943	0.1634182908545727	-0.17391304347826086	-0.5922038980509745	
1.6982411181248525E12	4.793478260869565	0.8695652173913043	10.67391304347826	3.0	0.42202242202242196	2369.542346133614	0.1664167916041979	-0.15292353823088456	-0.5757121439280359	
1.6982411181443828E12	4.804347826086956	0.8478260869565217	10.67391304347826	3.0	0.42202242202242196	2369.542346133614	0.1634182908545727	-0.15892053973013492	-0.5922038980509745	
1.698241118163913E12	4.815217391304348	0.8913043478260869	10.739130434782608	3.0	0.42157842157842157	2372.037914691943	0.15742128935532235	-0.17091454272863568	-0.5832083958020989	
1.6982411181834436E12	4.83695652173913	0.8913043478260869	10.728260869565217	3.0	0.42202242202242196	2369.542346133614	0.1679160419790105	-0.15742128935532235	-0.5787106446776612	
1.6982411182029739E12	4.793478260869565	0.9565217391304348	10.739130434782608	3.0	0.42202242202242196	2369.542346133614	0.1619190404797601	-0.1634182908545727	-0.5832083958020989	
1.6982411182225044E12	4.858695652173913	0.9130434782608695	10.717391304347826	3.0	0.42202242202242196	2369.542346133614	0.16041979010494753	-0.17841079460269865	-0.5832083958020989	
1.6982411182420347E12	4.83695652173913	0.9130434782608695	10.706521739130434	3.0	0.42157842157842157	2372.037914691943	0.15742128935532235	-0.15592203898050974	-0.5802098950524738	
1.6982411182615652E12	4.782608695652174	0.9239130434782609	10.771739130434783	3.0	0.42157842157842157	2372.037914691943	0.15292353823088456	-0.16941529235382308	-0.5712143928035982	
1.6982411182810955E12	4.8478260869565215	0.9021739130434783	10.739130434782608	3.0	0.42157842157842157	2372.037914691943	0.15892053973013492	-0.1829085457271364	-0.5847076461769115	
1.698241118300626E12	4.815217391304348	0.8804347826086957	10.717391304347826	3.0	0.42157842157842157	2372.037914691943	0.1664167916041979	-0.1634182908545727	-0.5877061469265367	
1.6982411183201562E12	4.858695652173913	0.8913043478260869	10.717391304347826	3.0	0.4211344211344211	2374.538745387454	0.1679160419790105	-0.14992503748125938	-0.5712143928035982	
1.6982411183396868E12	4.804347826086956	0.9021739130434783	10.684782608695652	3.0	0.42157842157842157	2372.037914691943	0.15742128935532235	-0.15292353823088456	-0.5862068965517241	
1.698241118359217E12	4.760869565217392	0.9130434782608695	10.695652173913043	3.0	0.42157842157842157	2372.037914691943	0.1649175412293853	-0.16041979010494753	-0.5802098950524738	
1.6982411183787473E12	4.804347826086956	0.8695652173913043	10.717391304347826	3.0	0.42157842157842157	2372.037914691943	0.15892053973013492	-0.14692653673163417	-0.5802098950524738	
1.6982411183982778E12	4.826086956521739	0.9130434782608695	10.67391304347826	3.0	0.42157842157842157	2372.037914691943	0.1619190404797601	-0.1679160419790105	-0.5727136431784108	
1.698241118417808E12	4.826086956521739	0.9347826086956521	10.75	3.0	0.42157842157842157	2372.037914691943	0.1679160419790105	-0.1619190404797601	-0.5862068965517241	
1.6982411184373386E12	4.880434782608695	0.8804347826086957	10.728260869565217	3.0	0.4211344211344211	2374.538745387454	0.16041979010494753	-0.1649175412293853	-0.5802098950524738	
1.698241118456869E12	4.793478260869565	0.8913043478260869	10.728260869565217	3.0	0.42157842157842157	2372.037914691943	0.1619190404797601	-0.15892053973013492	-0.5832083958020989	
1.6982411184763994E12	4.83695652173913	0.858695652173913	10.728260869565217	3.0	0.4211344211344211	2374.538745387454	0.1649175412293853	-0.16041979010494753	-0.5817091454272864	
1.6982411184959297E12	4.815217391304348	0.8695652173913043	10.706521739130434	3.0	0.42157842157842157	2372.037914691943	0.15892053973013492	-0.15442278860569714	-0.5862068965517241	
1.6982411185154602E12	4.815217391304348	0.8913043478260869	10.706521739130434	3.0	0.42157842157842157	2372.037914691943	0.1649175412293853	-0.17241379310344826	-0.5862068965517241	
1.6982411185349905E12	4.771739130434782	0.8695652173913043	10.717391304347826	3.0	0.4211344211344211	2374.538745387454	0.16041979010494753	-0.16041979010494753	-0.5847076461769115	
1.698241118554521E12	4.815217391304348	0.8804347826086957	10.739130434782608	3.0	0.4211344211344211	2374.538745387454	0.1649175412293853	-0.15892053973013492	-0.5772113943028485	
1.6982411185740513E12	4.858695652173913	0.9456521739130435	10.706521739130434	3.0	0.4206904206904207	2377.0448548812665	0.1679160419790105	-0.15442278860569714	-0.5772113943028485	
1.6982411185935818E12	4.83695652173913	0.9347826086956521	10.706521739130434	3.0	0.4206904206904207	2377.0448548812665	0.15892053973013492	-0.15592203898050974	-0.5892053973013494	
1.698241118613112E12	4.83695652173913	0.9130434782608695	10.684782608695652	3.0	0.4211344211344211	2374.538745387454	0.16941529235382308	-0.15892053973013492	-0.5757121439280359	
1.6982411186326423E12	4.913043478260869	0.8913043478260869	10.706521739130434	3.0	0.4206904206904207	2377.0448548812665	0.15892053973013492	-0.15442278860569714	-0.5787106446776612	
1.6982411186521729E12	4.880434782608695	0.9130434782608695	10.652173913043478	3.0	0.4206904206904207	2377.0448548812665	0.1649175412293853	-0.16041979010494753	-0.5952023988005997	
1.6982411186717031E12	4.891304347826087	0.8913043478260869	10.695652173913043	3.0	0.4211344211344211	2374.538745387454	0.1679160419790105	-0.14842578710644677	-0.5817091454272864	
1.6982411186912336E12	4.83695652173913	0.9347826086956521	10.717391304347826	3.0	0.4206904206904207	2377.0448548812665	0.15592203898050974	-0.17991004497751123	-0.5787106446776612	
1.698241118710764E12	4.880434782608695	0.8695652173913043	10.75	3.0	0.4206904206904207	2377.0448548812665	0.1619190404797601	-0.1619190404797601	-0.5892053973013494	
1.6982411187302944E12	4.771739130434782	0.9021739130434783	10.67391304347826	3.0	0.4206904206904207	2377.0448548812665	0.15742128935532235	-0.15892053973013492	-0.5742128935532234	
1.6982411187498247E12	4.8478260869565215	0.8478260869565217	10.728260869565217	3.0	0.4206904206904207	2377.0448548812665	0.15442278860569714	-0.17391304347826086	-0.5952023988005997	
1.6982411187693552E12	4.880434782608695	0.8695652173913043	10.706521739130434	3.0	0.4206904206904207	2377.0448548812665	0.1619190404797601	-0.1679160419790105	-0.5787106446776612	
1.6982411187888855E12	4.83695652173913	0.8913043478260869	10.717391304347826	3.0	0.4206904206904207	2377.0448548812665	0.16041979010494753	-0.1679160419790105	-0.5832083958020989	
1.698241118808416E12	4.8478260869565215	0.9021739130434783	10.717391304347826	3.0	0.4206904206904207	2377.0448548812665	0.1649175412293853	-0.17541229385307347	-0.5847076461769115	
1.6982411188279463E12	4.83695652173913	0.9130434782608695	10.728260869565217	3.0	0.4206904206904207	2377.0448548812665	0.15292353823088456	-0.15592203898050974	-0.5727136431784108	
1.6982411188474768E12	4.858695652173913	0.8804347826086957	10.684782608695652	3.0	0.4206904206904207	2377.0448548812665	0.1619190404797601	-0.15892053973013492	-0.5832083958020989	
1.698241118867007E12	4.869565217391305	0.858695652173913	10.695652173913043	3.0	0.4202464202464202	2379.556259904913	0.1679160419790105	-0.16041979010494753	-0.5847076461769115	
1.6982411188865374E12	4.869565217391305	0.9130434782608695	10.695652173913043	3.0	0.4202464202464202	2379.556259904913	0.1649175412293853	-0.16041979010494753	-0.5877061469265367	
1.6982411189060679E12	4.880434782608695	0.9239130434782609	10.739130434782608	3.0	0.4206904206904207	2377.0448548812665	0.15442278860569714	-0.1454272863568216	-0.5832083958020989	
1.6982411189255981E12	4.880434782608695	0.8913043478260869	10.684782608695652	3.0	0.4206904206904207	2377.0448548812665	0.15592203898050974	-0.15142428785607195	-0.5802098950524738	
1.6982411189451287E12	4.8478260869565215	0.9130434782608695	10.728260869565217	3.0	0.4198024198024198	2382.0729772607087	0.15592203898050974	-0.17241379310344826	-0.5862068965517241	
1.698241118964659E12	4.83695652173913	0.9130434782608695	10.717391304347826	3.0	0.4206904206904207	2377.0448548812665	0.16041979010494753	-0.14392803598200898	-0.5742128935532234	
1.6982411189841895E12	4.858695652173913	0.8695652173913043	10.684782608695652	3.0	0.4202464202464202	2379.556259904913	0.15892053973013492	-0.15442278860569714	-0.5862068965517241	
1.6982411190037197E12	4.793478260869565	0.8804347826086957	10.66304347826087	3.0	0.4202464202464202	2379.556259904913	0.14842578710644677	-0.1619190404797601	-0.5832083958020989	
1.6982411190232502E12	4.891304347826087	0.8152173913043478	10.695652173913043	3.0	0.4198024198024198	2382.0729772607087	0.1649175412293853	-0.16041979010494753	-0.5697151424287856	
1.6982411190427805E12	4.8478260869565215	0.8695652173913043	10.706521739130434	3.0	0.4198024198024198	2382.0729772607087	0.15892053973013492	-0.1454272863568216	-0.5967016491754122	
1.698241119062311E12	4.793478260869565	0.9021739130434783	10.652173913043478	3.0	0.4198024198024198	2382.0729772607087	0.15742128935532235	-0.15592203898050974	-0.6011994002998501	
1.6982411190818413E12	4.826086956521739	0.8804347826086957	10.67391304347826	3.0	0.4198024198024198	2382.0729772607087	0.15742128935532235	-0.1454272863568216	-0.5862068965517241	
1.6982411191013718E12	4.858695652173913	0.8913043478260869	10.728260869565217	3.0	0.4198024198024198	2382.0729772607087	0.15742128935532235	-0.14692653673163417	-0.5787106446776612	
1.698241119120902E12	4.869565217391305	0.8913043478260869	10.695652173913043	3.0	0.4202464202464202	2379.556259904913	0.16041979010494753	-0.16941529235382308	-0.5967016491754122	
1.6982411191404324E12	4.826086956521739	0.8913043478260869	10.67391304347826	3.0	0.4198024198024198	2382.0729772607087	0.1619190404797601	-0.1634182908545727	-0.5847076461769115	
1.698241119159963E12	4.804347826086956	0.9130434782608695	10.717391304347826	3.0	0.4198024198024198	2382.0729772607087	0.15892053973013492	-0.17841079460269865	-0.5832083958020989	
1.6982411191794932E12	4.8478260869565215	0.8804347826086957	10.695652173913043	3.0	0.4198024198024198	2382.0729772607087	0.1679160419790105	-0.14692653673163417	-0.5817091454272864	
1.6982411191990237E12	4.858695652173913	0.9130434782608695	10.739130434782608	3.0	0.41935841935841933	2384.595023822128	0.14842578710644677	-0.15742128935532235	-0.5817091454272864	
1.698241119218554E12	4.858695652173913	0.9239130434782609	10.717391304347826	3.0	0.4198024198024198	2382.0729772607087	0.1619190404797601	-0.17241379310344826	-0.5877061469265367	
1.6982411192380845E12	4.804347826086956	0.8913043478260869	10.706521739130434	3.0	0.4198024198024198	2382.0729772607087	0.15442278860569714	-0.15742128935532235	-0.5787106446776612	
1.6982411192576147E12	4.880434782608695	0.8478260869565217	10.684782608695652	3.0	0.4198024198024198	2382.0729772607087	0.16041979010494753	-0.15142428785607195	-0.5847076461769115	
1.6982411192771453E12	4.8478260869565215	0.858695652173913	10.684782608695652	3.0	0.41935841935841933	2384.595023822128	0.16041979010494753	-0.16941529235382308	-0.5967016491754122	
1.6982411192966755E12	4.83695652173913	0.8260869565217391	10.66304347826087	3.0	0.41935841935841933	2384.595023822128	0.1649175412293853	-0.15592203898050974	-0.5832083958020989	
1.698241119316206E12	4.815217391304348	0.8695652173913043	10.67391304347826	3.0	0.41935841935841933	2384.595023822128	0.15592203898050974	-0.1649175412293853	-0.5922038980509745	
1.6982411193357363E12	4.891304347826087	0.8695652173913043	10.75	3.0	0.41935841935841933	2384.595023822128	0.16041979010494753	-0.15592203898050974	-0.5907046476761619	
1.6982411193552668E12	4.858695652173913	0.8695652173913043	10.695652173913043	3.0	0.41935841935841933	2384.595023822128	0.15742128935532235	-0.1664167916041979	-0.5892053973013494	
1.698241119374797E12	4.8478260869565215	0.8913043478260869	10.706521739130434	3.0	0.41935841935841933	2384.595023822128	0.1619190404797601	-0.1679160419790105	-0.5847076461769115	
1.6982411193943274E12	4.8478260869565215	0.858695652173913	10.66304347826087	3.0	0.41935841935841933	2384.595023822128	0.15592203898050974	-0.17091454272863568	-0.5892053973013494	
1.698241119413858E12	4.858695652173913	0.8695652173913043	10.67391304347826	3.0	0.41935841935841933	2384.595023822128	0.15292353823088456	-0.1664167916041979	-0.5937031484257871	
1.6982411194333882E12	4.891304347826087	0.8695652173913043	10.728260869565217	3.0	0.4198024198024198	2382.0729772607087	0.1619190404797601	-0.15742128935532235	-0.5832083958020989	
1.6982411194529187E12	4.945652173913043	0.8913043478260869	10.717391304347826	3.0	0.41935841935841933	2384.595023822128	0.16041979010494753	-0.1634182908545727	-0.5892053973013494	
1.698241119472449E12	4.804347826086956	0.9347826086956521	10.652173913043478	3.0	0.4189144189144189	2387.1224165341814	0.1619190404797601	-0.1649175412293853	-0.5832083958020989	
1.6982411194919795E12	4.815217391304348	0.8804347826086957	10.67391304347826	3.0	0.4189144189144189	2387.1224165341814	0.15742128935532235	-0.16041979010494753	-0.5742128935532234	
1.6982411195115098E12	4.869565217391305	0.858695652173913	10.728260869565217	3.0	0.4189144189144189	2387.1224165341814	0.1619190404797601	-0.16041979010494753	-0.5862068965517241	
1.6982411195310403E12	4.8478260869565215	0.9021739130434783	10.67391304347826	3.0	0.4189144189144189	2387.1224165341814	0.1634182908545727	-0.15742128935532235	-0.5877061469265367	
1.6982411195505706E12	4.869565217391305	0.8369565217391304	10.75	3.0	0.4189144189144189	2387.1224165341814	0.1664167916041979	-0.16941529235382308	-0.5832083958020989	
1.698241119570101E12	4.880434782608695	0.8804347826086957	10.684782608695652	3.0	0.4189144189144189	2387.1224165341814	0.16041979010494753	-0.15892053973013492	-0.5892053973013494	
1.6982411195896313E12	4.858695652173913	0.8695652173913043	10.641304347826086	3.0	0.4184704184704185	2389.655172413793	0.15742128935532235	-0.17091454272863568	-0.5877061469265367	
1.6982411196091616E12	4.858695652173913	0.9456521739130435	10.695652173913043	3.0	0.4189144189144189	2387.1224165341814	0.1619190404797601	-0.17241379310344826	-0.5892053973013494	
1.6982411196286921E12	4.858695652173913	0.9021739130434783	10.728260869565217	3.0	0.4189144189144189	2387.1224165341814	0.16041979010494753	-0.1679160419790105	-0.5877061469265367	
1.6982411196482224E12	4.8478260869565215	0.9239130434782609	10.66304347826087	3.0	0.4189144189144189	2387.1224165341814	0.16041979010494753	-0.17241379310344826	-0.5877061469265367	
1.698241119667753E12	4.913043478260869	0.9239130434782609	10.67391304347826	3.0	0.4184704184704185	2389.655172413793	0.14992503748125938	-0.1664167916041979	-0.5862068965517241	
1.6982411196872832E12	4.869565217391305	0.9021739130434783	10.67391304347826	3.0	0.4189144189144189	2387.1224165341814	0.1619190404797601	-0.17091454272863568	-0.5877061469265367	
1.6982411197068137E12	4.891304347826087	0.8913043478260869	10.706521739130434	3.0	0.4189144189144189	2387.1224165341814	0.16041979010494753	-0.15592203898050974	-0.5967016491754122	
1.698241119726344E12	4.858695652173913	0.8804347826086957	10.728260869565217	3.0	0.4189144189144189	2387.1224165341814	0.15592203898050974	-0.15892053973013492	-0.5787106446776612	
1.6982411197458745E12	4.891304347826087	0.9021739130434783	10.717391304347826	3.0	0.4189144189144189	2387.1224165341814	0.16041979010494753	-0.17241379310344826	-0.5802098950524738	
1.6982411197654048E12	4.934782608695652	0.8913043478260869	10.695652173913043	3.0	0.4184704184704185	2389.655172413793	0.1649175412293853	-0.1664167916041979	-0.5847076461769115	
1.6982411197849353E12	4.8478260869565215	0.8695652173913043	10.66304347826087	3.0	0.4189144189144189	2387.1224165341814	0.16041979010494753	-0.15442278860569714	-0.5847076461769115	
1.6982411198044656E12	4.869565217391305	0.8695652173913043	10.695652173913043	3.0	0.4184704184704185	2389.655172413793	0.15592203898050974	-0.15292353823088456	-0.5817091454272864	
1.698241119823996E12	4.83695652173913	0.9021739130434783	10.67391304347826	3.0	0.4184704184704185	2389.655172413793	0.1634182908545727	-0.17091454272863568	-0.5802098950524738	
1.6982411198435264E12	4.869565217391305	0.858695652173913	10.695652173913043	3.0	0.418026418026418	2392.193308550186	0.15742128935532235	-0.1649175412293853	-0.5862068965517241	
1.6982411198630566E12	4.869565217391305	0.858695652173913	10.652173913043478	3.0	0.4184704184704185	2389.655172413793	0.15742128935532235	-0.17391304347826086	-0.5832083958020989	
1.6982411198825872E12	4.8478260869565215	0.8913043478260869	10.652173913043478	3.0	0.418026418026418	2392.193308550186	0.1664167916041979	-0.1634182908545727	-0.5847076461769115	
1.6982411199021174E12	4.815217391304348	0.9347826086956521	10.684782608695652	3.0	0.4184704184704185	2389.655172413793	0.17241379310344826	-0.15442278860569714	-0.5892053973013494	
1.698241119921648E12	4.9021739130434785	0.9456521739130435	10.695652173913043	3.0	0.4184704184704185	2389.655172413793	0.15292353823088456	-0.17541229385307347	-0.5922038980509745	
1.6982411199411782E12	4.956521739130435	0.9239130434782609	10.75	3.0	0.4184704184704185	2389.655172413793	0.1679160419790105	-0.15442278860569714	-0.5862068965517241	
1.6982411199607087E12	4.913043478260869	0.9021739130434783	10.706521739130434	3.0	0.4184704184704185	2389.655172413793	0.16041979010494753	-0.17391304347826086	-0.5802098950524738	
1.698241119980239E12	4.8478260869565215	0.8913043478260869	10.717391304347826	3.0	0.418026418026418	2392.193308550186	0.1619190404797601	-0.1634182908545727	-0.5877061469265367	
1.6982411199997695E12	4.826086956521739	0.9130434782608695	10.66304347826087	3.0	0.418026418026418	2392.193308550186	0.15592203898050974	-0.1634182908545727	-0.5967016491754122	
1.6982411200192998E12	4.8478260869565215	0.9021739130434783	10.66304347826087	3.0	0.418026418026418	2392.193308550186	0.16041979010494753	-0.17091454272863568	-0.5877061469265367	
1.6982411200388303E12	4.913043478260869	0.9347826086956521	10.793478260869565	3.0	0.4184704184704185	2389.655172413793	0.15742128935532235	-0.17241379310344826	-0.5772113943028485	
1.6982411200583606E12	4.923913043478261	0.9347826086956521	10.728260869565217	3.0	0.418026418026418	2392.193308550186	0.1649175412293853	-0.1679160419790105	-0.5832083958020989	
1.698241120077891E12	4.880434782608695	0.9347826086956521	10.67391304347826	3.0	0.418026418026418	2392.193308550186	0.15292353823088456	-0.17091454272863568	-0.5802098950524738	
1.6982411200974214E12	4.858695652173913	0.8913043478260869	10.66304347826087	3.0	0.418026418026418	2392.193308550186	0.15742128935532235	-0.17841079460269865	-0.5907046476761619	
1.6982411201169517E12	4.8478260869565215	0.8913043478260869	10.67391304347826	3.0	0.41758241758241754	2394.7368421052633	0.15442278860569714	-0.1679160419790105	-0.5847076461769115	
1.6982411201364822E12	4.9021739130434785	0.9239130434782609	10.706521739130434	3.0	0.418026418026418	2392.193308550186	0.16041979010494753	-0.17091454272863568	-0.5892053973013494	
1.6982411201560125E12	4.858695652173913	0.9130434782608695	10.684782608695652	3.0	0.41758241758241754	2394.7368421052633	0.17241379310344826	-0.1664167916041979	-0.5772113943028485	
1.698241120175543E12	4.858695652173913	0.9239130434782609	10.67391304347826	3.0	0.418026418026418	2392.193308550186	0.1619190404797601	-0.1679160419790105	-0.5907046476761619	
1.6982411201950732E12	4.880434782608695	0.9239130434782609	10.684782608695652	3.0	0.41758241758241754	2394.7368421052633	0.15592203898050974	-0.15742128935532235	-0.5877061469265367	
1.6982411202146038E12	4.891304347826087	0.8804347826086957	10.67391304347826	3.0	0.418026418026418	2392.193308550186	0.15142428785607195	-0.1619190404797601	-0.5742128935532234	
1.698241120234134E12	4.913043478260869	0.9021739130434783	10.67391304347826	3.0	0.418026418026418	2392.193308550186	0.15742128935532235	-0.1634182908545727	-0.5832083958020989	
1.6982411202536646E12	4.8478260869565215	0.9239130434782609	10.66304347826087	3.0	0.41758241758241754	2394.7368421052633	0.1619190404797601	-0.1664167916041979	-0.5787106446776612	
1.6982411202731948E12	4.858695652173913	0.9239130434782609	10.695652173913043	3.0	0.41758241758241754	2394.7368421052633	0.15892053973013492	-0.1649175412293853	-0.5907046476761619	
1.6982411202927253E12	4.858695652173913	0.967391304347826	10.67391304347826	3.0	0.41758241758241754	2394.7368421052633	0.16041979010494753	-0.15742128935532235	-0.5847076461769115	
1.6982411203122556E12	4.923913043478261	0.9130434782608695	10.684782608695652	3.0	0.41758241758241754	2394.7368421052633	0.1634182908545727	-0.17241379310344826	-0.5772113943028485	
1.6982411203317861E12	4.880434782608695	0.9565217391304348	10.717391304347826	3.0	0.418026418026418	2392.193308550186	0.15142428785607195	-0.15142428785607195	-0.5922038980509745	
1.6982411203513164E12	4.923913043478261	0.9239130434782609	10.706521739130434	3.0	0.41758241758241754	2394.7368421052633	0.15442278860569714	-0.16041979010494753	-0.5892053973013494	
1.6982411203708467E12	4.891304347826087	0.9456521739130435	10.684782608695652	3.0	0.41758241758241754	2394.7368421052633	0.15892053973013492	-0.14992503748125938	-0.5757121439280359	
1.6982411203903772E12	4.826086956521739	0.9456521739130435	10.66304347826087	3.0	0.41758241758241754	2394.7368421052633	0.15592203898050974	-0.15442278860569714	-0.5862068965517241	
1.6982411204099075E12	4.913043478260869	0.9130434782608695	10.728260869565217	3.0	0.41758241758241754	2394.7368421052633	0.15442278860569714	-0.1664167916041979	-0.5847076461769115	
1.698241120429438E12	4.9021739130434785	0.9130434782608695	10.728260869565217	3.0	0.41758241758241754	2394.7368421052633	0.15742128935532235	-0.17091454272863568	-0.5892053973013494	
1.6982411204489683E12	4.913043478260869	0.9347826086956521	10.67391304347826	3.0	0.4171384171384171	2397.285790313997	0.15592203898050974	-0.1679160419790105	-0.5787106446776612	
1.6982411204684988E12	4.8478260869565215	0.9239130434782609	10.66304347826087	3.0	0.41758241758241754	2394.7368421052633	0.1619190404797601	-0.15892053973013492	-0.5787106446776612	
1.698241120488029E12	4.83695652173913	0.9021739130434783	10.717391304347826	3.0	0.418026418026418	2392.193308550186	0.15142428785607195	-0.1664167916041979	-0.5772113943028485	
1.6982411205075596E12	4.913043478260869	0.9130434782608695	10.706521739130434	3.0	0.4171384171384171	2397.285790313997	0.15742128935532235	-0.17541229385307347	-0.5907046476761619	
1.6982411205270898E12	4.923913043478261	0.8913043478260869	10.706521739130434	3.0	0.4171384171384171	2397.285790313997	0.16041979010494753	-0.1634182908545727	-0.5907046476761619	
1.6982411205466204E12	4.913043478260869	0.9239130434782609	10.652173913043478	3.0	0.41758241758241754	2394.7368421052633	0.1679160419790105	-0.17241379310344826	-0.5907046476761619	
1.6982411205661506E12	4.9021739130434785	0.9239130434782609	10.641304347826086	3.0	0.41758241758241754	2394.7368421052633	0.15292353823088456	-0.1619190404797601	-0.5832083958020989	
1.698241120585681E12	4.891304347826087	0.9021739130434783	10.739130434782608	3.0	0.4171384171384171	2397.285790313997	0.16041979010494753	-0.1649175412293853	-0.5817091454272864	
1.6982411206052114E12	4.956521739130435	0.9021739130434783	10.728260869565217	3.0	0.41758241758241754	2394.7368421052633	0.1679160419790105	-0.18140929535232383	-0.5877061469265367	
1.6982411206247417E12	4.913043478260869	0.9239130434782609	10.67391304347826	3.0	0.4171384171384171	2397.285790313997	0.1634182908545727	-0.17091454272863568	-0.5832083958020989	
1.6982411206442722E12	4.858695652173913	0.8913043478260869	10.652173913043478	3.0	0.4171384171384171	2397.285790313997	0.15892053973013492	-0.16941529235382308	-0.5892053973013494	
1.6982411206638025E12	4.8478260869565215	0.8369565217391304	10.67391304347826	3.0	0.4171384171384171	2397.285790313997	0.15142428785607195	-0.1634182908545727	-0.5892053973013494	
1.698241120683333E12	4.83695652173913	0.9239130434782609	10.652173913043478	3.0	0.41758241758241754	2394.7368421052633	0.15292353823088456	-0.15742128935532235	-0.5847076461769115	
1.6982411207028633E12	4.891304347826087	0.9456521739130435	10.706521739130434	3.0	0.4171384171384171	2397.285790313997	0.1619190404797601	-0.1664167916041979	-0.5877061469265367	
1.6982411207223938E12	4.923913043478261	0.9239130434782609	10.717391304347826	3.0	0.4171384171384171	2397.285790313997	0.15742128935532235	-0.15142428785607195	-0.5862068965517241	
1.698241120741924E12	4.869565217391305	0.9565217391304348	10.652173913043478	3.0	0.4171384171384171	2397.285790313997	0.15142428785607195	-0.17091454272863568	-0.5847076461769115	
1.6982411207614546E12	4.891304347826087	0.8804347826086957	10.652173913043478	3.0	0.4171384171384171	2397.285790313997	0.16041979010494753	-0.1619190404797601	-0.5937031484257871	
1.6982411207809849E12	4.858695652173913	0.8804347826086957	10.695652173913043	3.0	0.4171384171384171	2397.285790313997	0.15292353823088456	-0.1679160419790105	-0.5817091454272864	
1.6982411208005154E12	4.826086956521739	0.9239130434782609	10.684782608695652	3.0	0.4171384171384171	2397.285790313997	0.15592203898050974	-0.1634182908545727	-0.5877061469265367	
1.6982411208200457E12	4.891304347826087	0.9239130434782609	10.706521739130434	3.0	0.4166944166944167	2399.840170484816	0.15742128935532235	-0.1634182908545727	-0.5787106446776612	
1.698241120839576E12	4.923913043478261	0.9565217391304348	10.739130434782608	3.0	0.4171384171384171	2397.285790313997	0.16041979010494753	-0.17841079460269865	-0.5817091454272864	
1.6982411208591064E12	4.891304347826087	0.9130434782608695	10.706521739130434	3.0	0.4171384171384171	2397.285790313997	0.15292353823088456	-0.15742128935532235	-0.5892053973013494	
1.6982411208786367E12	4.83695652173913	0.9021739130434783	10.630434782608695	3.0	0.4166944166944167	2399.840170484816	0.1649175412293853	-0.16941529235382308	-0.5817091454272864	
1.6982411208981672E12	4.826086956521739	0.8804347826086957	10.652173913043478	3.0	0.4166944166944167	2399.840170484816	0.15292353823088456	-0.1634182908545727	-0.5892053973013494	
1.6982411209176975E12	4.8478260869565215	0.9347826086956521	10.695652173913043	3.0	0.4166944166944167	2399.840170484816	0.15442278860569714	-0.1634182908545727	-0.5862068965517241	
1.698241120937228E12	4.945652173913043	0.8913043478260869	10.695652173913043	3.0	0.4171384171384171	2397.285790313997	0.15742128935532235	-0.1619190404797601	-0.5862068965517241	
1.6982411209567583E12	4.869565217391305	0.9021739130434783	10.684782608695652	3.0	0.4171384171384171	2397.285790313997	0.15892053973013492	-0.17241379310344826	-0.5772113943028485	
1.6982411209762888E12	4.83695652173913	0.8804347826086957	10.67391304347826	3.0	0.4166944166944167	2399.840170484816	0.1679160419790105	-0.17091454272863568	-0.5922038980509745	
1.698241120995819E12	4.869565217391305	0.8695652173913043	10.67391304347826	3.0	0.4166944166944167	2399.840170484816	0.1619190404797601	-0.15142428785607195	-0.5892053973013494	
1.6982411210153496E12	4.880434782608695	0.9130434782608695	10.706521739130434	3.0	0.4166944166944167	2399.840170484816	0.16041979010494753	-0.1679160419790105	-0.5802098950524738	
1.69824112103488E12	4.869565217391305	0.8913043478260869	10.739130434782608	3.0	0.4166944166944167	2399.840170484816	0.16041979010494753	-0.17241379310344826	-0.5787106446776612	
1.6982411210544104E12	4.826086956521739	0.9347826086956521	10.728260869565217	3.0	0.4166944166944167	2399.840170484816	0.15292353823088456	-0.1664167916041979	-0.5862068965517241	
1.6982411210739407E12	4.9021739130434785	0.9239130434782609	10.706521739130434	3.0	0.41625041625041626	2402.4	0.15442278860569714	-0.1649175412293853	-0.5757121439280359	
1.698241121093471E12	4.9021739130434785	0.9021739130434783	10.67391304347826	3.0	0.4166944166944167	2399.840170484816	0.1619190404797601	-0.15742128935532235	-0.5877061469265367	
1.6982411211130015E12	4.880434782608695	0.9239130434782609	10.728260869565217	3.0	0.4166944166944167	2399.840170484816	0.14992503748125938	-0.16941529235382308	-0.5757121439280359	
1.6982411211325317E12	4.858695652173913	0.8913043478260869	10.695652173913043	3.0	0.41625041625041626	2402.4	0.15442278860569714	-0.1634182908545727	-0.5742128935532234	
1.6982411211520623E12	4.858695652173913	0.8804347826086957	10.652173913043478	3.0	0.4166944166944167	2399.840170484816	0.15742128935532235	-0.15442278860569714	-0.5862068965517241	
1.6982411211715925E12	4.83695652173913	0.8913043478260869	10.652173913043478	3.0	0.41625041625041626	2402.4	0.14992503748125938	-0.1649175412293853	-0.5787106446776612	
1.698241121191123E12	4.869565217391305	0.858695652173913	10.684782608695652	3.0	0.41625041625041626	2402.4	0.15892053973013492	-0.15592203898050974	-0.5877061469265367	
1.6982411212106533E12	4.869565217391305	0.8913043478260869	10.706521739130434	3.0	0.41625041625041626	2402.4	0.15292353823088456	-0.16041979010494753	-0.5817091454272864	
1.6982411212301838E12	4.869565217391305	0.8913043478260869	10.717391304347826	3.0	0.41625041625041626	2402.4	0.15292353823088456	-0.1634182908545727	-0.5817091454272864	
1.698241121249714E12	4.869565217391305	0.9021739130434783	10.717391304347826	3.0	0.4166944166944167	2399.840170484816	0.1679160419790105	-0.14992503748125938	-0.5877061469265367	
1.6982411212692446E12	4.891304347826087	0.8478260869565217	10.695652173913043	3.0	0.4166944166944167	2399.840170484816	0.1649175412293853	-0.15292353823088456	-0.5802098950524738	
1.698241121288775E12	4.771739130434782	0.8695652173913043	10.684782608695652	3.0	0.41625041625041626	2402.4	0.17091454272863568	-0.15892053973013492	-0.5802098950524738	
1.6982411213083054E12	4.858695652173913	0.8695652173913043	10.717391304347826	3.0	0.41625041625041626	2402.4	0.1679160419790105	-0.14842578710644677	-0.5757121439280359	
1.6982411213278357E12	4.8478260869565215	0.9021739130434783	10.684782608695652	3.0	0.41625041625041626	2402.4	0.1634182908545727	-0.1619190404797601	-0.5907046476761619	
1.698241121347366E12	4.869565217391305	0.9130434782608695	10.717391304347826	3.0	0.4166944166944167	2399.840170484816	0.1634182908545727	-0.15742128935532235	-0.5772113943028485	
1.6982411213668965E12	4.913043478260869	0.9021739130434783	10.67391304347826	3.0	0.4166944166944167	2399.840170484816	0.15892053973013492	-0.15742128935532235	-0.5877061469265367	
1.6982411213864268E12	4.913043478260869	0.9130434782608695	10.717391304347826	3.0	0.41625041625041626	2402.4	0.16041979010494753	-0.1619190404797601	-0.5787106446776612	
1.6982411214059573E12	4.9021739130434785	0.858695652173913	10.67391304347826	3.0	0.41625041625041626	2402.4	0.15742128935532235	-0.16041979010494753	-0.5832083958020989	
1.6982411214254875E12	4.869565217391305	0.8695652173913043	10.66304347826087	3.0	0.4166944166944167	2399.840170484816	0.1679160419790105	-0.16941529235382308	-0.5862068965517241	
1.698241121445018E12	4.826086956521739	0.8478260869565217	10.66304347826087	3.0	0.41625041625041626	2402.4	0.15892053973013492	-0.1619190404797601	-0.5892053973013494	
1.6982411214645483E12	4.815217391304348	0.8695652173913043	10.66304347826087	3.0	0.4166944166944167	2399.840170484816	0.15892053973013492	-0.1679160419790105	-0.5802098950524738	
1.6982411214840789E12	4.869565217391305	0.858695652173913	10.67391304347826	3.0	0.41625041625041626	2402.4	0.16041979010494753	-0.16041979010494753	-0.5802098950524738	
1.6982411215036091E12	4.858695652173913	0.8913043478260869	10.706521739130434	3.0	0.41625041625041626	2402.4	0.16041979010494753	-0.1664167916041979	-0.5847076461769115	
1.6982411215231396E12	4.869565217391305	0.8913043478260869	10.717391304347826	3.0	0.41625041625041626	2402.4	0.1619190404797601	-0.17541229385307347	-0.5787106446776612	
1.69824112154267E12	4.945652173913043	0.9130434782608695	10.706521739130434	3.0	0.41625041625041626	2402.4	0.1649175412293853	-0.14992503748125938	-0.5832083958020989	
1.6982411215622004E12	4.913043478260869	0.9239130434782609	10.684782608695652	3.0	0.41625041625041626	2402.4	0.15742128935532235	-0.1649175412293853	-0.5832083958020989	
1.6982411215817307E12	4.83695652173913	0.8804347826086957	10.695652173913043	3.0	0.41625041625041626	2402.4	0.15742128935532235	-0.16941529235382308	-0.5757121439280359	
1.698241121601261E12	4.858695652173913	0.858695652173913	10.695652173913043	3.0	0.41625041625041626	2402.4	0.1634182908545727	-0.15442278860569714	-0.5877061469265367	
1.6982411216207915E12	4.880434782608695	0.8804347826086957	10.695652173913043	3.0	0.41625041625041626	2402.4	0.1619190404797601	-0.15442278860569714	-0.5772113943028485	
1.6982411216403218E12	4.891304347826087	0.8913043478260869	10.684782608695652	3.0	0.41625041625041626	2402.4	0.15292353823088456	-0.1634182908545727	-0.5787106446776612	
1.6982411216598523E12	4.858695652173913	0.8804347826086957	10.728260869565217	3.0	0.4158064158064158	2404.9652963160706	0.16041979010494753	-0.15742128935532235	-0.5907046476761619	
1.6982411216793826E12	4.804347826086956	0.9130434782608695	10.67391304347826	3.0	0.41625041625041626	2402.4	0.1619190404797601	-0.15892053973013492	-0.5862068965517241	
1.698241121698913E12	4.880434782608695	0.858695652173913	10.66304347826087	3.0	0.41625041625041626	2402.4	0.16941529235382308	-0.15892053973013492	-0.5772113943028485	
1.6982411217184434E12	4.913043478260869	0.8478260869565217	10.67391304347826	3.0	0.41625041625041626	2402.4	0.15892053973013492	-0.1649175412293853	-0.5847076461769115	
1.6982411217379739E12	4.880434782608695	0.8913043478260869	10.695652173913043	3.0	0.4166944166944167	2399.840170484816	0.1664167916041979	-0.1664167916041979	-0.5832083958020989	
1.6982411217575042E12	4.9021739130434785	0.8804347826086957	10.728260869565217	3.0	0.4158064158064158	2404.9652963160706	0.1679160419790105	-0.1619190404797601	-0.5922038980509745	
1.6982411217770347E12	4.83695652173913	0.9239130434782609	10.717391304347826	3.0	0.41625041625041626	2402.4	0.1649175412293853	-0.1619190404797601	-0.5847076461769115	
1.698241121796565E12	4.891304347826087	0.9021739130434783	10.695652173913043	3.0	0.41625041625041626	2402.4	0.16941529235382308	-0.1619190404797601	-0.5817091454272864	
1.6982411218160952E12	4.8478260869565215	0.8913043478260869	10.695652173913043	3.0	0.41625041625041626	2402.4	0.15742128935532235	-0.16941529235382308	-0.5757121439280359	
1.6982411218356257E12	4.880434782608695	0.8369565217391304	10.695652173913043	3.0	0.4158064158064158	2404.9652963160706	0.1634182908545727	-0.14842578710644677	-0.5832083958020989	
1.698241121855156E12	4.880434782608695	0.8695652173913043	10.717391304347826	3.0	0.4158064158064158	2404.9652963160706	0.15592203898050974	-0.15292353823088456	-0.5742128935532234	
1.6982411218746865E12	4.858695652173913	0.858695652173913	10.66304347826087	3.0	0.4158064158064158	2404.9652963160706	0.1619190404797601	-0.1619190404797601	-0.5742128935532234	
1.6982411218942168E12	4.880434782608695	0.9021739130434783	10.728260869565217	3.0	0.4158064158064158	2404.9652963160706	0.15742128935532235	-0.15742128935532235	-0.5862068965517241	
1.6982411219137473E12	4.869565217391305	0.8478260869565217	10.717391304347826	3.0	0.41536241536241536	2407.53607696419	0.15742128935532235	-0.14692653673163417	-0.5757121439280359	
1.6982411219332776E12	4.858695652173913	0.8260869565217391	10.67391304347826	3.0	0.4158064158064158	2404.9652963160706	0.1634182908545727	-0.16941529235382308	-0.5877061469265367	
1.698241121952808E12	4.804347826086956	0.8804347826086957	10.66304347826087	3.0	0.41625041625041626	2402.4	0.1634182908545727	-0.15892053973013492	-0.5757121439280359	
1.6982411219723384E12	4.793478260869565	0.9021739130434783	10.695652173913043	3.0	0.4158064158064158	2404.9652963160706	0.1664167916041979	-0.1619190404797601	-0.5832083958020989	
1.698241121991869E12	4.913043478260869	0.8695652173913043	10.75	3.0	0.4158064158064158	2404.9652963160706	0.1649175412293853	-0.15292353823088456	-0.5727136431784108	
1.6982411220113992E12	4.913043478260869	0.8695652173913043	10.739130434782608	3.0	0.41536241536241536	2407.53607696419	0.16041979010494753	-0.15892053973013492	-0.5727136431784108	
1.6982411220309297E12	4.8478260869565215	0.8804347826086957	10.630434782608695	3.0	0.41536241536241536	2407.53607696419	0.1664167916041979	-0.1634182908545727	-0.5922038980509745	
1.69824112205046E12	4.815217391304348	0.8478260869565217	10.66304347826087	3.0	0.4158064158064158	2404.9652963160706	0.1649175412293853	-0.15592203898050974	-0.5937031484257871	
1.6982411220699902E12	4.826086956521739	0.8260869565217391	10.684782608695652	3.0	0.41536241536241536	2407.53607696419	0.1634182908545727	-0.14842578710644677	-0.5802098950524738	
1.6982411220895208E12	4.804347826086956	0.8695652173913043	10.684782608695652	3.0	0.4158064158064158	2404.9652963160706	0.1664167916041979	-0.1679160419790105	-0.5907046476761619	
1.698241122109051E12	4.880434782608695	0.858695652173913	10.695652173913043	3.0	0.4158064158064158	2404.9652963160706	0.16041979010494753	-0.1664167916041979	-0.5862068965517241	
1.6982411221285815E12	4.869565217391305	0.8369565217391304	10.739130434782608	3.0	0.41536241536241536	2407.53607696419	0.16041979010494753	-0.15142428785607195	-0.5817091454272864	
1.6982411221481118E12	4.858695652173913	0.8478260869565217	10.706521739130434	3.0	0.4158064158064158	2404.9652963160706	0.15892053973013492	-0.15592203898050974	-0.5727136431784108	
1.6982411221676423E12	4.858695652173913	0.8369565217391304	10.695652173913043	3.0	0.41536241536241536	2407.53607696419	0.1619190404797601	-0.15592203898050974	-0.5937031484257871	
1.6982411221871726E12	4.83695652173913	0.8152173913043478	10.684782608695652	3.0	0.41536241536241536	2407.53607696419	0.16941529235382308	-0.15592203898050974	-0.5832083958020989	
1.6982411222067031E12	4.771739130434782	0.8152173913043478	10.67391304347826	3.0	0.4158064158064158	2404.9652963160706	0.15892053973013492	-0.15892053973013492	-0.5757121439280359	
1.6982411222262334E12	4.826086956521739	0.8260869565217391	10.66304347826087	3.0	0.41536241536241536	2407.53607696419	0.1619190404797601	-0.17091454272863568	-0.5907046476761619	
1.698241122245764E12	4.9021739130434785	0.8369565217391304	10.739130434782608	3.0	0.4158064158064158	2404.9652963160706	0.16941529235382308	-0.15292353823088456	-0.5712143928035982	
1.6982411222652942E12	4.869565217391305	0.858695652173913	10.684782608695652	3.0	0.4158064158064158	2404.9652963160706	0.1664167916041979	-0.15892053973013492	-0.5892053973013494	
1.6982411222848247E12	4.858695652173913	0.8478260869565217	10.67391304347826	3.0	0.41536241536241536	2407.53607696419	0.16941529235382308	-0.15142428785607195	-0.5757121439280359	
1.698241122304355E12	4.9021739130434785	0.8695652173913043	10.728260869565217	3.0	0.41536241536241536	2407.53607696419	0.1664167916041979	-0.14842578710644677	-0.5787106446776612	
1.6982411223238853E12	4.8478260869565215	0.8369565217391304	10.728260869565217	3.0	0.4149184149184149	2410.112359550562	0.1649175412293853	-0.15892053973013492	-0.5832083958020989	
1.6982411223434158E12	4.83695652173913	0.8695652173913043	10.706521739130434	3.0	0.41536241536241536	2407.53607696419	0.1649175412293853	-0.16941529235382308	-0.5847076461769115	
1.698241122362946E12	4.8478260869565215	0.8369565217391304	10.684782608695652	3.0	0.4158064158064158	2404.9652963160706	0.16041979010494753	-0.14992503748125938	-0.5727136431784108	
1.6982411223824766E12	4.815217391304348	0.8369565217391304	10.66304347826087	3.0	0.41536241536241536	2407.53607696419	0.1634182908545727	-0.15142428785607195	-0.5817091454272864	
1.6982411224020068E12	4.858695652173913	0.8043478260869565	10.652173913043478	3.0	0.41536241536241536	2407.53607696419	0.1634182908545727	-0.1679160419790105	-0.5877061469265367	
1.6982411224215374E12	4.869565217391305	0.8043478260869565	10.684782608695652	3.0	0.41536241536241536	2407.53607696419	0.1454272863568216	-0.15742128935532235	-0.5757121439280359	
1.6982411224410676E12	4.858695652173913	0.8369565217391304	10.630434782608695	3.0	0.4158064158064158	2404.9652963160706	0.15892053973013492	-0.15442278860569714	-0.5787106446776612	
1.6982411224605981E12	4.826086956521739	0.8478260869565217	10.67391304347826	3.0	0.4158064158064158	2404.9652963160706	0.1664167916041979	-0.14842578710644677	-0.5787106446776612	
1.6982411224801284E12	4.923913043478261	0.8260869565217391	10.728260869565217	3.0	0.41536241536241536	2407.53607696419	0.1634182908545727	-0.1664167916041979	-0.5907046476761619	
1.698241122499659E12	4.826086956521739	0.858695652173913	10.728260869565217	3.0	0.41536241536241536	2407.53607696419	0.15442278860569714	-0.16041979010494753	-0.5802098950524738	
1.6982411225191892E12	4.815217391304348	0.8695652173913043	10.695652173913043	3.0	0.41536241536241536	2407.53607696419	0.16041979010494753	-0.14842578710644677	-0.5832083958020989	
1.6982411225387197E12	4.880434782608695	0.8478260869565217	10.728260869565217	3.0	0.4149184149184149	2410.112359550562	0.15892053973013492	-0.15442278860569714	-0.5847076461769115	
1.69824112255825E12	4.869565217391305	0.8369565217391304	10.684782608695652	3.0	0.41536241536241536	2407.53607696419	0.17241379310344826	-0.16041979010494753	-0.5817091454272864	
1.6982411225777803E12	4.869565217391305	0.858695652173913	10.67391304347826	3.0	0.41536241536241536	2407.53607696419	0.15892053973013492	-0.17091454272863568	-0.5847076461769115	
1.6982411225973108E12	4.826086956521739	0.858695652173913	10.728260869565217	3.0	0.4158064158064158	2404.9652963160706	0.1649175412293853	-0.15142428785607195	-0.5832083958020989	
1.698241122616841E12	4.858695652173913	0.8369565217391304	10.728260869565217	3.0	0.4149184149184149	2410.112359550562	0.15892053973013492	-0.15742128935532235	-0.5892053973013494	
1.6982411226363716E12	4.858695652173913	0.858695652173913	10.695652173913043	3.0	0.4149184149184149	2410.112359550562	0.15442278860569714	-0.15292353823088456	-0.5907046476761619	
1.6982411226559019E12	4.83695652173913	0.8478260869565217	10.695652173913043	3.0	0.4149184149184149	2410.112359550562	0.1649175412293853	-0.1619190404797601	-0.5772113943028485	
1.6982411226754324E12	4.83695652173913	0.8152173913043478	10.684782608695652	3.0	0.41536241536241536	2407.53607696419	0.1634182908545727	-0.15292353823088456	-0.5862068965517241	
1.6982411226949626E12	4.826086956521739	0.8478260869565217	10.695652173913043	3.0	0.4149184149184149	2410.112359550562	0.15592203898050974	-0.15592203898050974	-0.5832083958020989	
1.6982411227144932E12	4.858695652173913	0.858695652173913	10.706521739130434	3.0	0.41536241536241536	2407.53607696419	0.15292353823088456	-0.1634182908545727	-0.5742128935532234	
1.6982411227340234E12	4.9021739130434785	0.8478260869565217	10.717391304347826	3.0	0.4149184149184149	2410.112359550562	0.15892053973013492	-0.15442278860569714	-0.5847076461769115	
1.698241122753554E12	4.869565217391305	0.858695652173913	10.67391304347826	3.0	0.4149184149184149	2410.112359550562	0.1664167916041979	-0.14842578710644677	-0.5787106446776612	
1.6982411227730842E12	4.804347826086956	0.8369565217391304	10.66304347826087	3.0	0.4149184149184149	2410.112359550562	0.15442278860569714	-0.16941529235382308	-0.5892053973013494	
1.6982411227926145E12	4.891304347826087	0.8913043478260869	10.706521739130434	3.0	0.4144744144744145	2412.694161756829	0.1649175412293853	-0.15892053973013492	-0.5847076461769115	
1.698241122812145E12	4.8478260869565215	0.8804347826086957	10.684782608695652	3.0	0.4149184149184149	2410.112359550562	0.1679160419790105	-0.17091454272863568	-0.5802098950524738	
1.6982411228316753E12	4.880434782608695	0.8478260869565217	10.706521739130434	3.0	0.4149184149184149	2410.112359550562	0.17391304347826086	-0.1634182908545727	-0.5802098950524738	
1.6982411228512058E12	4.793478260869565	0.8804347826086957	10.67391304347826	3.0	0.4149184149184149	2410.112359550562	0.15742128935532235	-0.1619190404797601	-0.5802098950524738	
1.698241122870736E12	4.815217391304348	0.8478260869565217	10.706521739130434	3.0	0.4149184149184149	2410.112359550562	0.1619190404797601	-0.14842578710644677	-0.5742128935532234	
1.6982411228902666E12	4.880434782608695	0.858695652173913	10.695652173913043	3.0	0.4144744144744145	2412.694161756829	0.15742128935532235	-0.15592203898050974	-0.5817091454272864	
1.6982411229097969E12	4.956521739130435	0.858695652173913	10.706521739130434	3.0	0.4149184149184149	2410.112359550562	0.15892053973013492	-0.15892053973013492	-0.5847076461769115	
1.6982411229293274E12	4.869565217391305	0.8804347826086957	10.695652173913043	3.0	0.4144744144744145	2412.694161756829	0.15742128935532235	-0.14992503748125938	-0.5757121439280359	
1.6982411229488577E12	4.826086956521739	0.858695652173913	10.695652173913043	3.0	0.4149184149184149	2410.112359550562	0.15742128935532235	-0.1634182908545727	-0.5847076461769115	
1.6982411229683882E12	4.891304347826087	0.858695652173913	10.695652173913043	3.0	0.4149184149184149	2410.112359550562	0.15592203898050974	-0.1634182908545727	-0.5862068965517241	
1.6982411229879185E12	4.869565217391305	0.8369565217391304	10.67391304347826	3.0	0.4144744144744145	2412.694161756829	0.1619190404797601	-0.17391304347826086	-0.5847076461769115	
1.698241123007449E12	4.858695652173913	0.8478260869565217	10.684782608695652	3.0	0.4144744144744145	2412.694161756829	0.1649175412293853	-0.1634182908545727	-0.5832083958020989	
1.6982411230269792E12	4.826086956521739	0.8804347826086957	10.695652173913043	3.0	0.4144744144744145	2412.694161756829	0.15592203898050974	-0.1619190404797601	-0.5952023988005997	
1.6982411230465095E12	4.815217391304348	0.8804347826086957	10.717391304347826	3.0	0.4149184149184149	2410.112359550562	0.16041979010494753	-0.1664167916041979	-0.5907046476761619	
1.69824112306604E12	4.869565217391305	0.858695652173913	10.706521739130434	3.0	0.4144744144744145	2412.694161756829	0.15892053973013492	-0.1634182908545727	-0.5877061469265367	
1.6982411230855703E12	4.891304347826087	0.8478260869565217	10.67391304347826	3.0	0.4144744144744145	2412.694161756829	0.15442278860569714	-0.1634182908545727	-0.5772113943028485	
1.6982411231051008E12	4.913043478260869	0.8804347826086957	10.706521739130434	3.0	0.414030414030414	2415.2815013404825	0.15442278860569714	-0.17391304347826086	-0.5817091454272864	
1.698241123124631E12	4.782608695652174	0.9021739130434783	10.706521739130434	3.0	0.4144744144744145	2412.694161756829	0.1649175412293853	-0.16041979010494753	-0.5712143928035982	
1.6982411231441616E12	4.826086956521739	0.9239130434782609	10.728260869565217	3.0	0.4149184149184149	2410.112359550562	0.16041979010494753	-0.14692653673163417	-0.5757121439280359	
1.698241123163692E12	4.891304347826087	0.9130434782608695	10.695652173913043	3.0	0.414030414030414	2415.2815013404825	0.16041979010494753	-0.17391304347826086	-0.5832083958020989	
1.6982411231832224E12	4.858695652173913	0.9239130434782609	10.684782608695652	3.0	0.4144744144744145	2412.694161756829	0.1634182908545727	-0.15442278860569714	-0.5877061469265367	
1.6982411232027527E12	4.891304347826087	0.8695652173913043	10.706521739130434	3.0	0.4144744144744145	2412.694161756829	0.1619190404797601	-0.15892053973013492	-0.5877061469265367	
1.6982411232222832E12	4.9021739130434785	0.9021739130434783	10.717391304347826	3.0	0.4144744144744145	2412.694161756829	0.1664167916041979	-0.1649175412293853	-0.5877061469265367	
1.6982411232418135E12	4.880434782608695	0.8913043478260869	10.695652173913043	3.0	0.4144744144744145	2412.694161756829	0.1634182908545727	-0.15892053973013492	-0.5817091454272864	
1.698241123261344E12	4.858695652173913	0.8804347826086957	10.67391304347826	3.0	0.4144744144744145	2412.694161756829	0.1619190404797601	-0.15742128935532235	-0.5787106446776612	
1.6982411232808743E12	4.869565217391305	0.8478260869565217	10.706521739130434	3.0	0.4149184149184149	2410.112359550562	0.16041979010494753	-0.15142428785607195	-0.5802098950524738	
1.6982411233004045E12	4.913043478260869	0.8369565217391304	10.67391304347826	3.0	0.4144744144744145	2412.694161756829	0.1649175412293853	-0.1619190404797601	-0.5757121439280359	
1.698241123319935E12	4.8478260869565215	0.8695652173913043	10.695652173913043	3.0	0.414030414030414	2415.2815013404825	0.1619190404797601	-0.1634182908545727	-0.5847076461769115	
1.6982411233394653E12	4.8478260869565215	0.8260869565217391	10.695652173913043	3.0	0.4144744144744145	2412.694161756829	0.15892053973013492	-0.15892053973013492	-0.5772113943028485	
1.6982411233589958E12	4.782608695652174	0.8695652173913043	10.652173913043478	3.0	0.4144744144744145	2412.694161756829	0.15292353823088456	-0.15892053973013492	-0.5847076461769115	
1.6982411233785261E12	4.8478260869565215	0.8369565217391304	10.67391304347826	3.0	0.4144744144744145	2412.694161756829	0.1649175412293853	-0.14392803598200898	-0.5937031484257871	
1.6982411233980566E12	4.8478260869565215	0.9021739130434783	10.76086956521739	3.0	0.4144744144744145	2412.694161756829	0.15592203898050974	-0.15292353823088456	-0.5862068965517241	
1.698241123417587E12	4.880434782608695	0.9565217391304348	10.771739130434783	3.0	0.414030414030414	2415.2815013404825	0.14992503748125938	-0.16041979010494753	-0.5862068965517241	
1.6982411234371174E12	4.913043478260869	0.9130434782608695	10.695652173913043	3.0	0.4144744144744145	2412.694161756829	0.16041979010494753	-0.1619190404797601	-0.5862068965517241	
1.6982411234566477E12	4.934782608695652	0.9130434782608695	10.695652173913043	3.0	0.414030414030414	2415.2815013404825	0.1619190404797601	-0.16041979010494753	-0.5862068965517241	
1.6982411234761782E12	4.83695652173913	0.9239130434782609	10.684782608695652	3.0	0.414030414030414	2415.2815013404825	0.15892053973013492	-0.1679160419790105	-0.5847076461769115	
1.6982411234957085E12	4.83695652173913	0.9239130434782609	10.66304347826087	3.0	0.414030414030414	2415.2815013404825	0.16041979010494753	-0.16941529235382308	-0.5787106446776612	
1.698241123515239E12	4.858695652173913	0.8913043478260869	10.695652173913043	3.0	0.414030414030414	2415.2815013404825	0.15892053973013492	-0.17241379310344826	-0.5907046476761619	
1.6982411235347693E12	4.858695652173913	0.8913043478260869	10.739130434782608	3.0	0.414030414030414	2415.2815013404825	0.1619190404797601	-0.1619190404797601	-0.5787106446776612	
1.6982411235542996E12	4.782608695652174	0.8260869565217391	10.706521739130434	3.0	0.414030414030414	2415.2815013404825	0.15592203898050974	-0.1679160419790105	-0.5817091454272864	
1.69824112357383E12	4.793478260869565	0.8478260869565217	10.706521739130434	3.0	0.4135864135864136	2417.8743961352657	0.15292353823088456	-0.16041979010494753	-0.5952023988005997	
1.6982411235933604E12	4.880434782608695	0.8369565217391304	10.695652173913043	3.0	0.414030414030414	2415.2815013404825	0.1664167916041979	-0.16041979010494753	-0.5922038980509745	
1.6982411236128909E12	4.880434782608695	0.858695652173913	10.684782608695652	3.0	0.414030414030414	2415.2815013404825	0.15892053973013492	-0.16041979010494753	-0.5832083958020989	
1.6982411236324211E12	4.804347826086956	0.9130434782608695	10.717391304347826	3.0	0.414030414030414	2415.2815013404825	0.1664167916041979	-0.15592203898050974	-0.5847076461769115	
1.6982411236519517E12	4.782608695652174	0.8804347826086957	10.728260869565217	3.0	0.414030414030414	2415.2815013404825	0.16941529235382308	-0.1649175412293853	-0.568215892053973	
1.698241123671482E12	4.9021739130434785	0.9130434782608695	10.75	3.0	0.414030414030414	2415.2815013404825	0.15592203898050974	-0.14992503748125938	-0.5877061469265367	
1.6982411236910125E12	4.858695652173913	0.9239130434782609	10.728260869565217	3.0	0.414030414030414	2415.2815013404825	0.15442278860569714	-0.16941529235382308	-0.5877061469265367	
1.6982411237105427E12	4.858695652173913	0.9021739130434783	10.75	3.0	0.414030414030414	2415.2815013404825	0.15142428785607195	-0.16041979010494753	-0.5847076461769115	
1.6982411237300732E12	4.8478260869565215	0.9239130434782609	10.728260869565217	3.0	0.4135864135864136	2417.8743961352657	0.15592203898050974	-0.15592203898050974	-0.5802098950524738	
1.6982411237496035E12	4.880434782608695	0.858695652173913	10.66304347826087	3.0	0.414030414030414	2415.2815013404825	0.15742128935532235	-0.1634182908545727	-0.5862068965517241	
1.698241123769134E12	4.9021739130434785	0.8804347826086957	10.684782608695652	3.0	0.414030414030414	2415.2815013404825	0.1634182908545727	-0.1649175412293853	-0.5757121439280359	
1.6982411237886643E12	4.826086956521739	0.8913043478260869	10.684782608695652	3.0	0.414030414030414	2415.2815013404825	0.15292353823088456	-0.17391304347826086	-0.5952023988005997	
1.6982411238081946E12	4.869565217391305	0.8695652173913043	10.684782608695652	3.0	0.414030414030414	2415.2815013404825	0.1679160419790105	-0.1664167916041979	-0.5847076461769115	
1.698241123827725E12	4.83695652173913	0.9021739130434783	10.717391304347826	3.0	0.414030414030414	2415.2815013404825	0.15892053973013492	-0.17091454272863568	-0.5817091454272864	
1.6982411238472554E12	4.913043478260869	0.9021739130434783	10.739130434782608	3.0	0.414030414030414	2415.2815013404825	0.15742128935532235	-0.15142428785607195	-0.5802098950524738	
1.698241123866786E12	4.869565217391305	0.8913043478260869	10.695652173913043	3.0	0.414030414030414	2415.2815013404825	0.15142428785607195	-0.1679160419790105	-0.5817091454272864	
1.6982411238863162E12	4.869565217391305	0.8369565217391304	10.739130434782608	3.0	0.414030414030414	2415.2815013404825	0.1634182908545727	-0.1619190404797601	-0.5832083958020989	
1.6982411239058467E12	4.804347826086956	0.8695652173913043	10.695652173913043	3.0	0.4135864135864136	2417.8743961352657	0.15142428785607195	-0.17541229385307347	-0.5892053973013494	
1.698241123925377E12	4.858695652173913	0.8695652173913043	10.641304347826086	3.0	0.414030414030414	2415.2815013404825	0.1649175412293853	-0.16941529235382308	-0.5892053973013494	
1.6982411239449075E12	4.8478260869565215	0.9021739130434783	10.717391304347826	3.0	0.414030414030414	2415.2815013404825	0.1649175412293853	-0.1619190404797601	-0.5907046476761619	
1.6982411239644377E12	4.826086956521739	0.9021739130434783	10.728260869565217	3.0	0.414030414030414	2415.2815013404825	0.1619190404797601	-0.1679160419790105	-0.5877061469265367	
1.6982411239839683E12	4.8478260869565215	0.8804347826086957	10.75	3.0	0.414030414030414	2415.2815013404825	0.15742128935532235	-0.1634182908545727	-0.5772113943028485	
1.6982411240034985E12	4.8478260869565215	0.9130434782608695	10.717391304347826	3.0	0.4135864135864136	2417.8743961352657	0.1634182908545727	-0.14992503748125938	-0.5832083958020989	
1.6982411240230288E12	4.869565217391305	0.9021739130434783	10.706521739130434	3.0	0.414030414030414	2415.2815013404825	0.15442278860569714	-0.17391304347826086	-0.5847076461769115	
1.6982411240425593E12	4.913043478260869	0.9021739130434783	10.771739130434783	3.0	0.4135864135864136	2417.8743961352657	0.15442278860569714	-0.1664167916041979	-0.5742128935532234	
1.6982411240620896E12	4.891304347826087	0.9347826086956521	10.728260869565217	3.0	0.4135864135864136	2417.8743961352657	0.1679160419790105	-0.16941529235382308	-0.5802098950524738	
1.69824112408162E12	4.83695652173913	0.8913043478260869	10.684782608695652	3.0	0.414030414030414	2415.2815013404825	0.1649175412293853	-0.17091454272863568	-0.5892053973013494	
1.6982411241011504E12	4.804347826086956	0.8913043478260869	10.67391304347826	3.0	0.4135864135864136	2417.8743961352657	0.15442278860569714	-0.14992503748125938	-0.5817091454272864	
1.698241124120681E12	4.815217391304348	0.8478260869565217	10.695652173913043	3.0	0.4135864135864136	2417.8743961352657	0.16041979010494753	-0.1619190404797601	-0.5802098950524738	
1.6982411241402112E12	4.880434782608695	0.8478260869565217	10.695652173913043	3.0	0.414030414030414	2415.2815013404825	0.15742128935532235	-0.1634182908545727	-0.5757121439280359	
1.6982411241597417E12	4.891304347826087	0.9130434782608695	10.695652173913043	3.0	0.4135864135864136	2417.8743961352657	0.15892053973013492	-0.15592203898050974	-0.5937031484257871	
1.698241124179272E12	4.858695652173913	0.8695652173913043	10.706521739130434	3.0	0.4135864135864136	2417.8743961352657	0.15892053973013492	-0.15742128935532235	-0.5877061469265367	
1.6982411241988025E12	4.815217391304348	0.8804347826086957	10.717391304347826	3.0	0.4135864135864136	2417.8743961352657	0.15142428785607195	-0.15142428785607195	-0.5817091454272864	
1.6982411242183328E12	4.804347826086956	0.8913043478260869	10.717391304347826	3.0	0.4135864135864136	2417.8743961352657	0.16041979010494753	-0.1664167916041979	-0.5727136431784108	
1.6982411242378633E12	4.869565217391305	0.8804347826086957	10.684782608695652	3.0	0.414030414030414	2415.2815013404825	0.16041979010494753	-0.16041979010494753	-0.5802098950524738	
1.6982411242573936E12	4.891304347826087	0.9347826086956521	10.695652173913043	3.0	0.4135864135864136	2417.8743961352657	0.1649175412293853	-0.1649175412293853	-0.5847076461769115	
1.6982411242769238E12	4.891304347826087	0.9239130434782609	10.706521739130434	3.0	0.4135864135864136	2417.8743961352657	0.15292353823088456	-0.1619190404797601	-0.5877061469265367	
1.6982411242964543E12	4.9021739130434785	0.9130434782608695	10.706521739130434	3.0	0.4135864135864136	2417.8743961352657	0.1619190404797601	-0.15442278860569714	-0.5862068965517241	
1.6982411243159846E12	4.9021739130434785	0.9021739130434783	10.717391304347826	3.0	0.4135864135864136	2417.8743961352657	0.1634182908545727	-0.1649175412293853	-0.5847076461769115	
1.6982411243355151E12	4.869565217391305	0.9021739130434783	10.66304347826087	3.0	0.414030414030414	2415.2815013404825	0.1664167916041979	-0.17391304347826086	-0.5967016491754122	
1.6982411243550454E12	4.8478260869565215	0.9021739130434783	10.706521739130434	3.0	0.4131424131424132	2420.472864051585	0.1664167916041979	-0.15742128935532235	-0.5697151424287856	
1.698241124374576E12	4.804347826086956	0.9239130434782609	10.717391304347826	3.0	0.4135864135864136	2417.8743961352657	0.1634182908545727	-0.16041979010494753	-0.5937031484257871	
1.6982411243941062E12	4.83695652173913	0.8913043478260869	10.75	3.0	0.4135864135864136	2417.8743961352657	0.16041979010494753	-0.1679160419790105	-0.5802098950524738	
1.6982411244136367E12	4.83695652173913	0.8804347826086957	10.717391304347826	3.0	0.4135864135864136	2417.8743961352657	0.16041979010494753	-0.16041979010494753	-0.5817091454272864	
1.698241124433167E12	4.880434782608695	0.858695652173913	10.67391304347826	3.0	0.4135864135864136	2417.8743961352657	0.1619190404797601	-0.17991004497751123	-0.5862068965517241	
1.6982411244526975E12	4.858695652173913	0.8913043478260869	10.641304347826086	3.0	0.4135864135864136	2417.8743961352657	0.16041979010494753	-0.17091454272863568	-0.5892053973013494	
1.6982411244722278E12	4.8478260869565215	0.9021739130434783	10.75	3.0	0.4135864135864136	2417.8743961352657	0.15592203898050974	-0.15292353823088456	-0.5787106446776612	
1.6982411244917583E12	4.880434782608695	0.9021739130434783	10.76086956521739	3.0	0.4135864135864136	2417.8743961352657	0.15892053973013492	-0.15742128935532235	-0.5907046476761619	
1.6982411245112886E12	4.880434782608695	0.9239130434782609	10.717391304347826	3.0	0.4135864135864136	2417.8743961352657	0.17091454272863568	-0.1649175412293853	-0.5802098950524738	
1.6982411245308188E12	4.923913043478261	0.9130434782608695	10.695652173913043	3.0	0.4135864135864136	2417.8743961352657	0.15442278860569714	-0.15442278860569714	-0.5742128935532234	
1.6982411245503494E12	4.9021739130434785	0.9239130434782609	10.66304347826087	3.0	0.4135864135864136	2417.8743961352657	0.1619190404797601	-0.17391304347826086	-0.5802098950524738	
1.6982411245698796E12	4.913043478260869	0.8804347826086957	10.695652173913043	3.0	0.4135864135864136	2417.8743961352657	0.1619190404797601	-0.15442278860569714	-0.5847076461769115	
1.6982411245894102E12	4.891304347826087	0.8804347826086957	10.695652173913043	3.0	0.4131424131424132	2420.472864051585	0.15142428785607195	-0.1634182908545727	-0.5817091454272864	
1.6982411246089404E12	4.815217391304348	0.9130434782608695	10.695652173913043	3.0	0.4131424131424132	2420.472864051585	0.15292353823088456	-0.14992503748125938	-0.5847076461769115	
1.698241124628471E12	4.793478260869565	0.9239130434782609	10.66304347826087	3.0	0.4131424131424132	2420.472864051585	0.15742128935532235	-0.1664167916041979	-0.5742128935532234	
1.6982411246480012E12	4.793478260869565	0.8913043478260869	10.684782608695652	3.0	0.4135864135864136	2417.8743961352657	0.15742128935532235	-0.16941529235382308	-0.5892053973013494	
1.6982411246675317E12	4.858695652173913	0.8913043478260869	10.75	3.0	0.4135864135864136	2417.8743961352657	0.1664167916041979	-0.17691154422788605	-0.5787106446776612	
1.698241124687062E12	4.880434782608695	0.9130434782608695	10.739130434782608	3.0	0.4135864135864136	2417.8743961352657	0.1619190404797601	-0.17391304347826086	-0.5877061469265367	
1.6982411247065925E12	4.83695652173913	0.8913043478260869	10.684782608695652	3.0	0.4135864135864136	2417.8743961352657	0.17091454272863568	-0.1679160419790105	-0.5862068965517241	
1.6982411247261228E12	4.8478260869565215	0.8913043478260869	10.706521739130434	3.0	0.4131424131424132	2420.472864051585	0.15892053973013492	-0.1664167916041979	-0.568215892053973	
1.6982411247456533E12	4.869565217391305	0.8804347826086957	10.75	3.0	0.4131424131424132	2420.472864051585	0.1634182908545727	-0.1634182908545727	-0.5787106446776612	
1.6982411247651836E12	4.8478260869565215	0.9021739130434783	10.706521739130434	3.0	0.4131424131424132	2420.472864051585	0.15892053973013492	-0.1679160419790105	-0.5772113943028485	
1.6982411247847139E12	4.858695652173913	0.9239130434782609	10.728260869565217	3.0	0.4131424131424132	2420.472864051585	0.1634182908545727	-0.17091454272863568	-0.5922038980509745	
1.6982411248042444E12	4.83695652173913	0.8913043478260869	10.728260869565217	3.0	0.4131424131424132	2420.472864051585	0.15892053973013492	-0.15892053973013492	-0.5877061469265367	
1.6982411248237747E12	4.826086956521739	0.9347826086956521	10.717391304347826	3.0	0.4131424131424132	2420.472864051585	0.1619190404797601	-0.15892053973013492	-0.5817091454272864	
1.6982411248433052E12	4.858695652173913	0.9021739130434783	10.67391304347826	3.0	0.4131424131424132	2420.472864051585	0.1634182908545727	-0.17241379310344826	-0.5847076461769115	
1.6982411248628354E12	4.9021739130434785	0.9021739130434783	10.684782608695652	3.0	0.4135864135864136	2417.8743961352657	0.16041979010494753	-0.15442278860569714	-0.5817091454272864	
1.698241124882366E12	4.913043478260869	0.8804347826086957	10.728260869565217	3.0	0.4131424131424132	2420.472864051585	0.1649175412293853	-0.1649175412293853	-0.5832083958020989	
1.6982411249018962E12	4.869565217391305	0.8913043478260869	10.717391304347826	3.0	0.4135864135864136	2417.8743961352657	0.1619190404797601	-0.1649175412293853	-0.5757121439280359	
1.6982411249214268E12	4.83695652173913	0.9021739130434783	10.695652173913043	3.0	0.41269841269841273	2423.076923076923	0.1634182908545727	-0.1679160419790105	-0.5802098950524738	
1.698241124940957E12	4.83695652173913	0.8804347826086957	10.75	3.0	0.4131424131424132	2420.472864051585	0.15892053973013492	-0.15442278860569714	-0.5862068965517241	
1.6982411249604875E12	4.815217391304348	0.8478260869565217	10.739130434782608	3.0	0.4131424131424132	2420.472864051585	0.15742128935532235	-0.16941529235382308	-0.5802098950524738	
1.6982411249800178E12	4.83695652173913	0.858695652173913	10.684782608695652	3.0	0.41269841269841273	2423.076923076923	0.16041979010494753	-0.15742128935532235	-0.5817091454272864	
1.698241124999548E12	4.869565217391305	0.8804347826086957	10.695652173913043	3.0	0.41269841269841273	2423.076923076923	0.15592203898050974	-0.1664167916041979	-0.5877061469265367	
1.6982411250190786E12	4.815217391304348	0.9021739130434783	10.652173913043478	3.0	0.4131424131424132	2420.472864051585	0.14992503748125938	-0.1409295352323838	-0.5742128935532234	
1.698241125038609E12	4.913043478260869	0.9130434782608695	10.75	3.0	0.41269841269841273	2423.076923076923	0.1619190404797601	-0.16941529235382308	-0.5892053973013494	
1.6982411250581394E12	4.923913043478261	0.9021739130434783	10.728260869565217	3.0	0.41269841269841273	2423.076923076923	0.16041979010494753	-0.1664167916041979	-0.5772113943028485	
1.6982411250776697E12	4.8478260869565215	0.9239130434782609	10.717391304347826	3.0	0.41269841269841273	2423.076923076923	0.1619190404797601	-0.15742128935532235	-0.5832083958020989	
1.6982411250972002E12	4.858695652173913	0.9021739130434783	10.717391304347826	3.0	0.41269841269841273	2423.076923076923	0.15292353823088456	-0.15892053973013492	-0.5802098950524738	
1.6982411251167305E12	4.869565217391305	0.9021739130434783	10.706521739130434	3.0	0.4131424131424132	2420.472864051585	0.16041979010494753	-0.16041979010494753	-0.5817091454272864	
1.698241125136261E12	4.913043478260869	0.8913043478260869	10.728260869565217	3.0	0.41269841269841273	2423.076923076923	0.15742128935532235	-0.1679160419790105	-0.5847076461769115	
1.6982411251557913E12	4.891304347826087	0.8913043478260869	10.706521739130434	3.0	0.41269841269841273	2423.076923076923	0.1634182908545727	-0.1679160419790105	-0.5877061469265367	
1.6982411251753218E12	4.858695652173913	0.8913043478260869	10.67391304347826	3.0	0.4131424131424132	2420.472864051585	0.16041979010494753	-0.15442278860569714	-0.5817091454272864	
1.698241125194852E12	4.815217391304348	0.8913043478260869	10.695652173913043	3.0	0.41269841269841273	2423.076923076923	0.16041979010494753	-0.17091454272863568	-0.5727136431784108	
1.6982411252143826E12	4.869565217391305	0.8695652173913043	10.695652173913043	3.0	0.41269841269841273	2423.076923076923	0.15292353823088456	-0.15442278860569714	-0.5817091454272864	
1.6982411252339128E12	4.815217391304348	0.8695652173913043	10.684782608695652	3.0	0.4122544122544123	2425.686591276252	0.1649175412293853	-0.1664167916041979	-0.5832083958020989	
1.698241125253443E12	4.826086956521739	0.9021739130434783	10.717391304347826	3.0	0.4122544122544123	2425.686591276252	0.1619190404797601	-0.17091454272863568	-0.5817091454272864	
1.6982411252729736E12	4.880434782608695	0.8695652173913043	10.728260869565217	3.0	0.41269841269841273	2423.076923076923	0.15442278860569714	-0.18140929535232383	-0.5787106446776612	
1.698241125292504E12	4.913043478260869	0.9021739130434783	10.75	3.0	0.4122544122544123	2425.686591276252	0.15892053973013492	-0.15742128935532235	-0.5802098950524738	
1.6982411253120344E12	4.858695652173913	0.9130434782608695	10.67391304347826	3.0	0.4122544122544123	2425.686591276252	0.1664167916041979	-0.17691154422788605	-0.5817091454272864	
1.6982411253315647E12	4.8478260869565215	0.8695652173913043	10.695652173913043	3.0	0.41269841269841273	2423.076923076923	0.1649175412293853	-0.17841079460269865	-0.5862068965517241	
1.6982411253510952E12	4.858695652173913	0.8804347826086957	10.728260869565217	3.0	0.41269841269841273	2423.076923076923	0.16041979010494753	-0.15292353823088456	-0.5817091454272864	
1.6982411253706255E12	4.9021739130434785	0.8804347826086957	10.771739130434783	3.0	0.41269841269841273	2423.076923076923	0.15142428785607195	-0.1634182908545727	-0.5802098950524738	
1.698241125390156E12	4.83695652173913	0.9239130434782609	10.728260869565217	3.0	0.4122544122544123	2425.686591276252	0.15292353823088456	-0.16041979010494753	-0.5817091454272864	
1.6982411254096863E12	4.891304347826087	0.8695652173913043	10.739130434782608	3.0	0.4122544122544123	2425.686591276252	0.1664167916041979	-0.15892053973013492	-0.5787106446776612	
1.6982411254292168E12	4.858695652173913	0.8369565217391304	10.652173913043478	3.0	0.4122544122544123	2425.686591276252	0.15892053973013492	-0.1679160419790105	-0.5862068965517241	
1.698241125448747E12	4.83695652173913	0.8369565217391304	10.67391304347826	3.0	0.4122544122544123	2425.686591276252	0.15892053973013492	-0.1679160419790105	-0.5757121439280359	
1.6982411254682776E12	4.83695652173913	0.8478260869565217	10.641304347826086	3.0	0.4122544122544123	2425.686591276252	0.1619190404797601	-0.1619190404797601	-0.5727136431784108	
1.6982411254878079E12	4.804347826086956	0.8804347826086957	10.695652173913043	3.0	0.41269841269841273	2423.076923076923	0.16041979010494753	-0.15742128935532235	-0.5877061469265367	
1.6982411255073381E12	4.804347826086956	0.9239130434782609	10.695652173913043	3.0	0.41269841269841273	2423.076923076923	0.15742128935532235	-0.15892053973013492	-0.5787106446776612	
1.6982411255268687E12	4.891304347826087	0.9021739130434783	10.76086956521739	3.0	0.4122544122544123	2425.686591276252	0.15592203898050974	-0.14842578710644677	-0.568215892053973	
1.698241125546399E12	4.891304347826087	0.8913043478260869	10.728260869565217	3.0	0.4122544122544123	2425.686591276252	0.15892053973013492	-0.16941529235382308	-0.5877061469265367	
1.6982411255659294E12	4.869565217391305	0.8478260869565217	10.717391304347826	3.0	0.41181041181041184	2428.301886792453	0.15442278860569714	-0.16941529235382308	-0.5817091454272864	
1.6982411255854597E12	4.771739130434782	0.8478260869565217	10.66304347826087	3.0	0.4122544122544123	2425.686591276252	0.1634182908545727	-0.1664167916041979	-0.5862068965517241	
1.6982411256049902E12	4.83695652173913	0.8695652173913043	10.695652173913043	3.0	0.41181041181041184	2428.301886792453	0.16041979010494753	-0.15742128935532235	-0.5862068965517241	
1.6982411256245205E12	4.869565217391305	0.9130434782608695	10.739130434782608	3.0	0.41181041181041184	2428.301886792453	0.1649175412293853	-0.15442278860569714	-0.5757121439280359	
1.698241125644051E12	4.923913043478261	0.8913043478260869	10.739130434782608	3.0	0.41269841269841273	2423.076923076923	0.15592203898050974	-0.1664167916041979	-0.5817091454272864	
1.6982411256635813E12	4.815217391304348	0.8804347826086957	10.684782608695652	3.0	0.41269841269841273	2423.076923076923	0.1634182908545727	-0.1619190404797601	-0.5757121439280359	
1.6982411256831118E12	4.804347826086956	0.8478260869565217	10.67391304347826	3.0	0.4122544122544123	2425.686591276252	0.15892053973013492	-0.1664167916041979	-0.5847076461769115	
1.698241125702642E12	4.793478260869565	0.8478260869565217	10.66304347826087	3.0	0.41181041181041184	2428.301886792453	0.15592203898050974	-0.15892053973013492	-0.5847076461769115	
1.6982411257221726E12	4.913043478260869	0.8478260869565217	10.728260869565217	3.0	0.4122544122544123	2425.686591276252	0.15892053973013492	-0.1679160419790105	-0.5817091454272864	
1.698241125741703E12	4.9021739130434785	0.8804347826086957	10.706521739130434	3.0	0.41181041181041184	2428.301886792453	0.15592203898050974	-0.15292353823088456	-0.5817091454272864	
1.6982411257612332E12	4.8478260869565215	0.8695652173913043	10.717391304347826	3.0	0.41181041181041184	2428.301886792453	0.16041979010494753	-0.1679160419790105	-0.5877061469265367	
1.6982411257807637E12	4.826086956521739	0.8260869565217391	10.67391304347826	3.0	0.41181041181041184	2428.301886792453	0.1649175412293853	-0.15592203898050974	-0.5832083958020989	
1.698241125800294E12	4.815217391304348	0.8478260869565217	10.684782608695652	3.0	0.41181041181041184	2428.301886792453	0.15892053973013492	-0.1649175412293853	-0.5787106446776612	
1.6982411258198245E12	4.826086956521739	0.8804347826086957	10.695652173913043	3.0	0.4113664113664114	2430.922827846735	0.16041979010494753	-0.1619190404797601	-0.5727136431784108	
1.6982411258393547E12	4.891304347826087	0.858695652173913	10.706521739130434	3.0	0.41181041181041184	2428.301886792453	0.15742128935532235	-0.1634182908545727	-0.5817091454272864	
1.6982411258588853E12	4.880434782608695	0.9021739130434783	10.695652173913043	3.0	0.4113664113664114	2430.922827846735	0.15592203898050974	-0.15892053973013492	-0.5877061469265367	
1.6982411258784155E12	4.858695652173913	0.858695652173913	10.684782608695652	3.0	0.4113664113664114	2430.922827846735	0.15592203898050974	-0.16041979010494753	-0.5772113943028485	
1.698241125897946E12	4.83695652173913	0.858695652173913	10.66304347826087	3.0	0.4122544122544123	2425.686591276252	0.15442278860569714	-0.14392803598200898	-0.5787106446776612	
1.6982411259174763E12	4.869565217391305	0.8804347826086957	10.717391304347826	3.0	0.4113664113664114	2430.922827846735	0.1679160419790105	-0.15742128935532235	-0.5772113943028485	
1.6982411259370068E12	4.880434782608695	0.8913043478260869	10.695652173913043	3.0	0.41181041181041184	2428.301886792453	0.15592203898050974	-0.16941529235382308	-0.5742128935532234	
1.698241125956537E12	4.804347826086956	0.8695652173913043	10.67391304347826	3.0	0.4113664113664114	2430.922827846735	0.1634182908545727	-0.1679160419790105	-0.5772113943028485	
1.6982411259760676E12	4.858695652173913	0.858695652173913	10.75	3.0	0.4113664113664114	2430.922827846735	0.1679160419790105	-0.17241379310344826	-0.5877061469265367	
1.698241125995598E12	4.880434782608695	0.8804347826086957	10.717391304347826	3.0	0.4113664113664114	2430.922827846735	0.16041979010494753	-0.17391304347826086	-0.5877061469265367	
1.6982411260151282E12	4.891304347826087	0.858695652173913	10.695652173913043	3.0	0.4113664113664114	2430.922827846735	0.15892053973013492	-0.17241379310344826	-0.5877061469265367	
1.6982411260346587E12	4.826086956521739	0.8695652173913043	10.706521739130434	3.0	0.4113664113664114	2430.922827846735	0.17091454272863568	-0.1454272863568216	-0.5742128935532234	
1.698241126054189E12	4.804347826086956	0.858695652173913	10.706521739130434	3.0	0.41181041181041184	2428.301886792453	0.1649175412293853	-0.15442278860569714	-0.5802098950524738	
1.6982411260737195E12	4.8478260869565215	0.8695652173913043	10.706521739130434	3.0	0.41181041181041184	2428.301886792453	0.15742128935532235	-0.15592203898050974	-0.5847076461769115	
1.6982411260932498E12	4.891304347826087	0.8804347826086957	10.67391304347826	3.0	0.41181041181041184	2428.301886792453	0.15892053973013492	-0.1649175412293853	-0.5832083958020989	
1.6982411261127803E12	4.869565217391305	0.8913043478260869	10.67391304347826	3.0	0.410922410922411	2433.5494327390597	0.16041979010494753	-0.15592203898050974	-0.5847076461769115	
1.6982411261323105E12	4.815217391304348	0.8804347826086957	10.717391304347826	3.0	0.4113664113664114	2430.922827846735	0.15892053973013492	-0.1619190404797601	-0.5847076461769115	
1.698241126151841E12	4.880434782608695	0.8695652173913043	10.75	3.0	0.4113664113664114	2430.922827846735	0.17091454272863568	-0.1664167916041979	-0.5862068965517241	
1.6982411261713713E12	4.891304347826087	0.8478260869565217	10.717391304347826	3.0	0.4113664113664114	2430.922827846735	0.1619190404797601	-0.15742128935532235	-0.5727136431784108	
1.6982411261909019E12	4.869565217391305	0.8804347826086957	10.717391304347826	3.0	0.4113664113664114	2430.922827846735	0.1679160419790105	-0.1649175412293853	-0.5862068965517241	
1.6982411262104321E12	4.826086956521739	0.8804347826086957	10.684782608695652	3.0	0.4113664113664114	2430.922827846735	0.16041979010494753	-0.1664167916041979	-0.5952023988005997	
1.6982411262299624E12	4.858695652173913	0.8804347826086957	10.75	3.0	0.410922410922411	2433.5494327390597	0.1649175412293853	-0.17241379310344826	-0.5877061469265367	
1.698241126249493E12	4.826086956521739	0.8478260869565217	10.67391304347826	3.0	0.4113664113664114	2430.922827846735	0.1619190404797601	-0.17241379310344826	-0.5817091454272864	
1.6982411262690232E12	4.880434782608695	0.8478260869565217	10.66304347826087	3.0	0.4113664113664114	2430.922827846735	0.1649175412293853	-0.15142428785607195	-0.5742128935532234	
1.6982411262885537E12	4.869565217391305	0.8695652173913043	10.652173913043478	3.0	0.410922410922411	2433.5494327390597	0.16041979010494753	-0.17541229385307347	-0.5877061469265367	
1.698241126308084E12	4.815217391304348	0.8695652173913043	10.67391304347826	3.0	0.4113664113664114	2430.922827846735	0.15892053973013492	-0.15292353823088456	-0.5802098950524738	
1.6982411263276145E12	4.891304347826087	0.9130434782608695	10.76086956521739	3.0	0.410922410922411	2433.5494327390597	0.1634182908545727	-0.16941529235382308	-0.5802098950524738	
1.6982411263471448E12	4.869565217391305	0.9021739130434783	10.728260869565217	3.0	0.410922410922411	2433.5494327390597	0.16041979010494753	-0.15442278860569714	-0.5832083958020989	
1.6982411263666753E12	4.8478260869565215	0.8913043478260869	10.706521739130434	3.0	0.410922410922411	2433.5494327390597	0.17391304347826086	-0.14992503748125938	-0.5817091454272864	
1.6982411263862056E12	4.815217391304348	0.8804347826086957	10.706521739130434	3.0	0.4104784104784105	2436.1817198485664	0.15892053973013492	-0.17541229385307347	-0.5832083958020989	
1.698241126405736E12	4.815217391304348	0.8804347826086957	10.728260869565217	3.0	0.410922410922411	2433.5494327390597	0.1649175412293853	-0.15742128935532235	-0.5727136431784108	
1.6982411264252664E12	4.83695652173913	0.8804347826086957	10.739130434782608	3.0	0.4113664113664114	2430.922827846735	0.1634182908545727	-0.15592203898050974	-0.5817091454272864	
1.6982411264447969E12	4.891304347826087	0.8804347826086957	10.706521739130434	3.0	0.410922410922411	2433.5494327390597	0.15892053973013492	-0.15892053973013492	-0.5832083958020989	
1.6982411264643271E12	4.826086956521739	0.8478260869565217	10.695652173913043	3.0	0.410922410922411	2433.5494327390597	0.1634182908545727	-0.1619190404797601	-0.5817091454272864	
1.6982411264838574E12	4.826086956521739	0.8695652173913043	10.728260869565217	3.0	0.4104784104784105	2436.1817198485664	0.15142428785607195	-0.1649175412293853	-0.5847076461769115	
1.698241126503388E12	4.8478260869565215	0.8804347826086957	10.695652173913043	3.0	0.410922410922411	2433.5494327390597	0.16041979010494753	-0.17691154422788605	-0.5862068965517241	
1.6982411265229182E12	4.83695652173913	0.8804347826086957	10.67391304347826	3.0	0.410922410922411	2433.5494327390597	0.16041979010494753	-0.16941529235382308	-0.5727136431784108	
1.6982411265424487E12	4.880434782608695	0.9021739130434783	10.706521739130434	3.0	0.4104784104784105	2436.1817198485664	0.15892053973013492	-0.15592203898050974	-0.5892053973013494	
1.698241126561979E12	4.869565217391305	0.8804347826086957	10.728260869565217	3.0	0.4104784104784105	2436.1817198485664	0.16041979010494753	-0.15892053973013492	-0.5862068965517241	
1.6982411265815095E12	4.9021739130434785	0.9456521739130435	10.706521739130434	3.0	0.410922410922411	2433.5494327390597	0.15292353823088456	-0.15892053973013492	-0.5772113943028485	
1.6982411266010398E12	4.923913043478261	0.9021739130434783	10.717391304347826	3.0	0.4104784104784105	2436.1817198485664	0.15892053973013492	-0.1649175412293853	-0.5817091454272864	
1.6982411266205703E12	4.880434782608695	0.8804347826086957	10.706521739130434	3.0	0.4104784104784105	2436.1817198485664	0.16941529235382308	-0.1649175412293853	-0.5862068965517241	
1.6982411266401006E12	4.869565217391305	0.8695652173913043	10.717391304347826	3.0	0.4104784104784105	2436.1817198485664	0.1634182908545727	-0.15892053973013492	-0.5787106446776612	
1.698241126659631E12	4.869565217391305	0.8804347826086957	10.706521739130434	3.0	0.4104784104784105	2436.1817198485664	0.1664167916041979	-0.1634182908545727	-0.6041979010494752	
1.6982411266791614E12	4.815217391304348	0.9130434782608695	10.67391304347826	3.0	0.410922410922411	2433.5494327390597	0.16041979010494753	-0.1634182908545727	-0.5787106446776612	
1.698241126698692E12	4.858695652173913	0.8695652173913043	10.717391304347826	3.0	0.41003441003441	2438.819707634001	0.16041979010494753	-0.1664167916041979	-0.5862068965517241	
1.6982411267182222E12	4.83695652173913	0.9239130434782609	10.695652173913043	3.0	0.4104784104784105	2436.1817198485664	0.1649175412293853	-0.1649175412293853	-0.5847076461769115	
1.6982411267377524E12	4.880434782608695	0.858695652173913	10.695652173913043	3.0	0.4104784104784105	2436.1817198485664	0.15892053973013492	-0.17241379310344826	-0.5802098950524738	
1.698241126757283E12	4.826086956521739	0.8913043478260869	10.67391304347826	3.0	0.4104784104784105	2436.1817198485664	0.16041979010494753	-0.1634182908545727	-0.5772113943028485	
1.6982411267768132E12	4.815217391304348	0.8913043478260869	10.739130434782608	3.0	0.4104784104784105	2436.1817198485664	0.16041979010494753	-0.15292353823088456	-0.5802098950524738	
1.6982411267963438E12	4.826086956521739	0.8913043478260869	10.739130434782608	3.0	0.4104784104784105	2436.1817198485664	0.16041979010494753	-0.17241379310344826	-0.5727136431784108	
1.698241126815874E12	4.9021739130434785	0.8913043478260869	10.739130434782608	3.0	0.41003441003441	2438.819707634001	0.15442278860569714	-0.1619190404797601	-0.5817091454272864	
1.6982411268354045E12	4.826086956521739	0.9021739130434783	10.641304347826086	3.0	0.410922410922411	2433.5494327390597	0.16041979010494753	-0.1664167916041979	-0.5832083958020989	
1.6982411268549348E12	4.826086956521739	0.8804347826086957	10.684782608695652	3.0	0.41003441003441	2438.819707634001	0.1619190404797601	-0.14692653673163417	-0.5817091454272864	
1.6982411268744653E12	4.793478260869565	0.8804347826086957	10.695652173913043	3.0	0.41003441003441	2438.819707634001	0.17691154422788605	-0.15742128935532235	-0.5892053973013494	
1.6982411268939956E12	4.9021739130434785	0.9347826086956521	10.75	3.0	0.4104784104784105	2436.1817198485664	0.1664167916041979	-0.15742128935532235	-0.5832083958020989	
1.6982411269135261E12	4.923913043478261	0.8913043478260869	10.728260869565217	3.0	0.4104784104784105	2436.1817198485664	0.15892053973013492	-0.17691154422788605	-0.5742128935532234	
1.6982411269330564E12	4.804347826086956	0.9130434782608695	10.67391304347826	3.0	0.41003441003441	2438.819707634001	0.15442278860569714	-0.1664167916041979	-0.5817091454272864	
1.698241126952587E12	4.815217391304348	0.8913043478260869	10.717391304347826	3.0	0.41003441003441	2438.819707634001	0.16941529235382308	-0.16041979010494753	-0.5862068965517241	
1.6982411269721172E12	4.858695652173913	0.8913043478260869	10.728260869565217	3.0	0.41003441003441	2438.819707634001	0.15592203898050974	-0.15442278860569714	-0.5877061469265367	
1.6982411269916475E12	4.8478260869565215	0.9021739130434783	10.706521739130434	3.0	0.41003441003441	2438.819707634001	0.15292353823088456	-0.16941529235382308	-0.5847076461769115	
1.698241127011178E12	4.913043478260869	0.9347826086956521	10.728260869565217	3.0	0.41003441003441	2438.819707634001	0.1634182908545727	-0.1649175412293853	-0.5697151424287856	
1.6982411270307083E12	4.913043478260869	0.9021739130434783	10.717391304347826	3.0	0.41003441003441	2438.819707634001	0.1664167916041979	-0.17841079460269865	-0.5937031484257871	
1.6982411270502388E12	4.8478260869565215	0.8913043478260869	10.684782608695652	3.0	0.41003441003441	2438.819707634001	0.15592203898050974	-0.15592203898050974	-0.5742128935532234	
1.698241127069769E12	4.869565217391305	0.8695652173913043	10.695652173913043	3.0	0.4104784104784105	2436.1817198485664	0.15142428785607195	-0.15742128935532235	-0.5847076461769115	
1.6982411270892996E12	4.869565217391305	0.858695652173913	10.717391304347826	3.0	0.41003441003441	2438.819707634001	0.15742128935532235	-0.1454272863568216	-0.5772113943028485	
1.6982411271088298E12	4.804347826086956	0.9130434782608695	10.67391304347826	3.0	0.4095904095904096	2441.4634146341464	0.16041979010494753	-0.15142428785607195	-0.5817091454272864	
1.6982411271283604E12	4.804347826086956	0.9130434782608695	10.695652173913043	3.0	0.41003441003441	2438.819707634001	0.15742128935532235	-0.16041979010494753	-0.5877061469265367	
1.6982411271478906E12	4.891304347826087	0.8913043478260869	10.706521739130434	3.0	0.41003441003441	2438.819707634001	0.15442278860569714	-0.17391304347826086	-0.5817091454272864	
1.6982411271674211E12	4.9021739130434785	0.8913043478260869	10.728260869565217	3.0	0.4095904095904096	2441.4634146341464	0.14992503748125938	-0.15292353823088456	-0.5877061469265367	
1.6982411271869514E12	4.858695652173913	0.9239130434782609	10.684782608695652	3.0	0.4095904095904096	2441.4634146341464	0.15892053973013492	-0.15742128935532235	-0.5892053973013494	
1.6982411272064817E12	4.8478260869565215	0.9130434782608695	10.728260869565217	3.0	0.41003441003441	2438.819707634001	0.1619190404797601	-0.17241379310344826	-0.5787106446776612	
1.6982411272260122E12	4.793478260869565	0.9130434782608695	10.728260869565217	3.0	0.4095904095904096	2441.4634146341464	0.1679160419790105	-0.1664167916041979	-0.5877061469265367	
1.6982411272455425E12	4.8478260869565215	0.8913043478260869	10.717391304347826	3.0	0.41003441003441	2438.819707634001	0.1634182908545727	-0.17991004497751123	-0.5907046476761619	
1.698241127265073E12	4.858695652173913	0.9021739130434783	10.684782608695652	3.0	0.4095904095904096	2441.4634146341464	0.15592203898050974	-0.1619190404797601	-0.5967016491754122	
1.6982411272846033E12	4.826086956521739	0.9239130434782609	10.695652173913043	3.0	0.4095904095904096	2441.4634146341464	0.1634182908545727	-0.17841079460269865	-0.6011994002998501	
1.6982411273041338E12	4.8478260869565215	0.9347826086956521	10.706521739130434	3.0	0.4095904095904096	2441.4634146341464	0.15292353823088456	-0.1634182908545727	-0.5817091454272864	
